Potential applied (V);Time (s);WE(1).Current (A);WE(1).Potential (V);Scan;Index;Q+;Q-;Current range
0.00244140625;5.86495398519241;-3.7841796875E-10;0.0025482177734375;1;1;1.50866061449051E-08;-5.10325282812119E-08;100 nA
0.0048828125;5.88936798513078;1.8310546875E-11;0.00499572753906249;1;2;1.50866061449051E-08;-5.10325282812119E-08;100 nA
0.00732421875;5.91378198506914;-8.85009765625E-11;0.0074432373046875;1;3;1.50866061449051E-08;-5.10325282812119E-08;100 nA
0.009765625;5.9381959850075;4.21142578125E-10;0.0098846435546875;1;4;1.50866061449051E-08;-5.10325282812119E-08;100 nA
0.01220703125;5.96260998494586;6.103515625E-11;0.012335205078125;1;5;1.50866061449051E-08;-5.10325282812119E-08;100 nA
0.009765625;5.98702398488422;-2.44140625E-10;0.00987854003906249;1;6;1.50866061449051E-08;-5.10325282812119E-08;100 nA
0.00732421875;6.01143798482258;-1.495361328125E-10;0.00743408203125;1;7;1.50866061449051E-08;-5.10325282812119E-08;100 nA
0.0048828125;6.03585198476094;-8.36181640625E-10;0.0050079345703125;1;8;1.50866061449051E-08;-5.10325282812119E-08;100 nA
0.00244140625;6.0602659846993;-6.378173828125E-10;0.00255432128906249;1;9;1.50866061449051E-08;-5.10325282812119E-08;100 nA
0;6.08467998463766;-8.4228515625E-10;0.000115966796875006;1;10;1.50866061449051E-08;-5.10325282812119E-08;100 nA
-0.00244140625;6.10909398457602;-1.0406494140625E-09;-0.00232543945312499;1;11;1.50866061449051E-08;-5.10325282812119E-08;100 nA
-0.0048828125;6.13350798451438;-1.0223388671875E-09;-0.0047576904296875;1;12;1.50866061449051E-08;-5.10325282812119E-08;100 nA
-0.00732421875;6.15792198445274;-1.324462890625E-09;-0.00719604492187501;1;13;1.50866061449051E-08;-5.10325282812119E-08;100 nA
-0.009765625;6.1823359843911;-1.4556884765625E-09;-0.0096466064453125;1;14;1.50866061449051E-08;-5.10325282812119E-08;100 nA
-0.01220703125;6.20674998432946;-1.33056640625E-09;-0.01207275390625;1;15;1.50866061449051E-08;-5.10325282812119E-08;100 nA
-0.0146484375;6.23116398426782;-1.3580322265625E-09;-0.0145050048828125;1;16;1.50866061449051E-08;-5.10325282812119E-08;100 nA
-0.01708984375;6.25557798420618;-1.2603759765625E-09;-0.0169403076171875;1;17;1.50866061449051E-08;-5.10325282812119E-08;100 nA
-0.01953125;6.27999198414454;-1.5777587890625E-09;-0.019384765625;1;18;1.50866061449051E-08;-5.10325282812119E-08;100 nA
-0.02197265625;6.3044059840829;-1.4068603515625E-09;-0.0218353271484375;1;19;1.50866061449051E-08;-5.10325282812119E-08;100 nA
-0.0244140625;6.32881998402127;-1.5472412109375E-09;-0.02427978515625;1;20;1.50866061449051E-08;-5.10325282812119E-08;100 nA
-0.02685546875;6.35323398395963;-1.5411376953125E-09;-0.0267120361328125;1;21;1.50866061449051E-08;-5.10325282812119E-08;100 nA
-0.029296875;6.37764798389799;-1.715087890625E-09;-0.0291351318359375;1;22;1.50866061449051E-08;-5.10325282812119E-08;100 nA
-0.03173828125;6.40206198383635;-1.77001953125E-09;-0.031573486328125;1;23;1.50866061449051E-08;-5.10325282812119E-08;100 nA
-0.0341796875;6.42647598377471;-1.7547607421875E-09;-0.0340301513671875;1;24;1.50866061449051E-08;-5.10325282812119E-08;100 nA
-0.03662109375;6.45088998371307;-1.8157958984375E-09;-0.036474609375;1;25;1.50866061449051E-08;-5.10325282812119E-08;100 nA
-0.0390625;6.47530398365143;-1.8218994140625E-09;-0.038897705078125;1;26;1.50866061449051E-08;-5.10325282812119E-08;100 nA
-0.04150390625;6.49971798358979;-2.001953125E-09;-0.0413421630859375;1;27;1.50866061449051E-08;-5.10325282812119E-08;100 nA
-0.0439453125;6.52413198352815;-1.983642578125E-09;-0.043780517578125;1;28;1.50866061449051E-08;-5.10325282812119E-08;100 nA
-0.04638671875;6.54854598346651;-2.1881103515625E-09;-0.0462249755859375;1;29;1.50866061449051E-08;-5.10325282812119E-08;100 nA
-0.048828125;6.57295998340487;-2.001953125E-09;-0.048663330078125;1;30;1.50866061449051E-08;-5.10325282812119E-08;100 nA
-0.05126953125;6.59737398334323;-2.2369384765625E-09;-0.0511474609375;1;31;1.50866061449051E-08;-5.10325282812119E-08;100 nA
-0.0537109375;6.62178798328159;-1.8951416015625E-09;-0.053558349609375;1;32;1.50866061449051E-08;-5.10325282812119E-08;100 nA
-0.05615234375;6.64620198321995;-2.2705078125E-09;-0.0560302734375;1;33;1.50866061449051E-08;-5.10325282812119E-08;100 nA
-0.05859375;6.67061598315831;-2.020263671875E-09;-0.0584716796875;1;34;1.50866061449051E-08;-5.10325282812119E-08;100 nA
-0.06103515625;6.69502998309667;-2.2064208984375E-09;-0.0609130859375;1;35;1.50866061449051E-08;-5.10325282812119E-08;100 nA
-0.0634765625;6.71944398303503;-2.337646484375E-09;-0.063323974609375;1;36;1.50866061449051E-08;-5.10325282812119E-08;100 nA
-0.06591796875;6.7438579829734;-2.2552490234375E-09;-0.065765380859375;1;37;1.50866061449051E-08;-5.10325282812119E-08;100 nA
-0.068359375;6.76827198291176;-2.4566650390625E-09;-0.0682373046875;1;38;1.50866061449051E-08;-5.10325282812119E-08;100 nA
-0.07080078125;6.79268598285012;-2.392578125E-09;-0.070709228515625;1;39;1.50866061449051E-08;-5.10325282812119E-08;100 nA
-0.0732421875;6.81709998278848;-2.5054931640625E-09;-0.0731201171875;1;40;1.50866061449051E-08;-5.10325282812119E-08;100 nA
-0.07568359375;6.84151398272684;-2.3406982421875E-09;-0.075469970703125;1;41;1.50866061449051E-08;-5.10325282812119E-08;100 nA
-0.078125;6.8659279826652;-2.7130126953125E-09;-0.07794189453125;1;42;1.50866061449051E-08;-5.10325282812119E-08;100 nA
-0.08056640625;6.89034198260356;-2.1484375E-09;-0.080413818359375;1;43;1.50866061449051E-08;-5.10325282812119E-08;100 nA
-0.0830078125;6.91475598254192;-2.74658203125E-09;-0.08282470703125;1;44;1.50866061449051E-08;-5.10325282812119E-08;100 nA
-0.08544921875;6.93916998248028;-2.252197265625E-09;-0.085296630859375;1;45;1.50866061449051E-08;-5.10325282812119E-08;100 nA
-0.087890625;6.96358398241864;-2.783203125E-09;-0.087738037109375;1;46;1.50866061449051E-08;-5.10325282812119E-08;100 nA
-0.09033203125;6.987997982357;-2.7435302734375E-09;-0.090118408203125;1;47;1.50866061449051E-08;-5.10325282812119E-08;100 nA
-0.0927734375;7.01241198229536;-2.691650390625E-09;-0.092620849609375;1;48;1.50866061449051E-08;-5.10325282812119E-08;100 nA
-0.09521484375;7.03682598223372;-2.532958984375E-09;-0.0950927734375;1;49;1.50866061449051E-08;-5.10325282812119E-08;100 nA
-0.09765625;7.06123998217208;-2.3834228515625E-09;-0.097442626953125;1;50;1.50866061449051E-08;-5.10325282812119E-08;100 nA
-0.10009765625;7.08565398211044;-2.777099609375E-09;-0.09991455078125;1;51;1.50866061449051E-08;-5.10325282812119E-08;100 nA
-0.1025390625;7.1100679820488;-2.57568359375E-09;-0.102386474609375;1;52;1.50866061449051E-08;-5.10325282812119E-08;100 nA
-0.10498046875;7.13448198198716;-2.6641845703125E-09;-0.10479736328125;1;53;1.50866061449051E-08;-5.10325282812119E-08;100 nA
-0.107421875;7.15889598192553;-2.7496337890625E-09;-0.10723876953125;1;54;1.50866061449051E-08;-5.10325282812119E-08;100 nA
-0.10986328125;7.18330998186389;-2.8167724609375E-09;-0.109710693359375;1;55;1.50866061449051E-08;-5.10325282812119E-08;100 nA
-0.1123046875;7.20772398180225;-2.55126953125E-09;-0.112152099609375;1;56;1.50866061449051E-08;-5.10325282812119E-08;100 nA
-0.11474609375;7.23213798174061;-2.7252197265625E-09;-0.114501953125;1;57;1.50866061449051E-08;-5.10325282812119E-08;100 nA
-0.1171875;7.25655198167897;-2.490234375E-09;-0.117034912109375;1;58;1.50866061449051E-08;-5.10325282812119E-08;100 nA
-0.11962890625;7.28096598161733;-2.79541015625E-09;-0.119476318359375;1;59;1.50866061449051E-08;-5.10325282812119E-08;100 nA
-0.1220703125;7.30537998155569;-2.8839111328125E-09;-0.121856689453125;1;60;1.50866061449051E-08;-5.10325282812119E-08;100 nA
-0.12451171875;7.32979398149405;-2.935791015625E-09;-0.12432861328125;1;61;1.50866061449051E-08;-5.10325282812119E-08;100 nA
-0.126953125;7.35420798143241;-2.4627685546875E-09;-0.12677001953125;1;62;1.50866061449051E-08;-5.10325282812119E-08;100 nA
-0.12939453125;7.37862198137077;-3.01513671875E-09;-0.129150390625;1;63;1.50866061449051E-08;-5.10325282812119E-08;100 nA
-0.1318359375;7.40303598130913;-3.08837890625E-09;-0.13165283203125;1;64;1.50866061449051E-08;-5.10325282812119E-08;100 nA
-0.13427734375;7.42744998124749;-2.777099609375E-09;-0.134063720703125;1;65;1.50866061449051E-08;-5.10325282812119E-08;100 nA
-0.13671875;7.45186398118585;-3.3447265625E-09;-0.136505126953125;1;66;1.50866061449051E-08;-5.10325282812119E-08;100 nA
-0.13916015625;7.47627798112421;-3.0120849609375E-09;-0.138946533203125;1;67;1.50866061449051E-08;-5.10325282812119E-08;100 nA
-0.1416015625;7.50069198106257;-2.7862548828125E-09;-0.141387939453125;1;68;1.50866061449051E-08;-5.10325282812119E-08;100 nA
-0.14404296875;7.52510598100093;-2.7557373046875E-09;-0.143829345703125;1;69;1.50866061449051E-08;-5.10325282812119E-08;100 nA
-0.146484375;7.54951998093929;-3.167724609375E-09;-0.146270751953125;1;70;1.50866061449051E-08;-5.10325282812119E-08;100 nA
-0.14892578125;7.57393398087765;-2.630615234375E-09;-0.148651123046875;1;71;1.50866061449051E-08;-5.10325282812119E-08;100 nA
-0.1513671875;7.59834798081602;-3.240966796875E-09;-0.151123046875;1;72;1.50866061449051E-08;-5.10325282812119E-08;100 nA
-0.15380859375;7.62276198075438;-2.8228759765625E-09;-0.153656005859375;1;73;1.50866061449051E-08;-5.10325282812119E-08;100 nA
-0.15625;7.64717598069274;-3.1219482421875E-09;-0.155975341796875;1;74;1.50866061449051E-08;-5.10325282812119E-08;100 nA
-0.15869140625;7.6715899806311;-2.9083251953125E-09;-0.158447265625;1;75;1.50866061449051E-08;-5.10325282812119E-08;100 nA
-0.1611328125;7.69600398056946;-3.2470703125E-09;-0.16094970703125;1;76;1.50866061449051E-08;-5.10325282812119E-08;100 nA
-0.16357421875;7.72041798050782;-2.9052734375E-09;-0.163360595703125;1;77;1.50866061449051E-08;-5.10325282812119E-08;100 nA
-0.166015625;7.74483198044618;-2.9571533203125E-09;-0.165771484375;1;78;1.50866061449051E-08;-5.10325282812119E-08;100 nA
-0.16845703125;7.76924598038454;-3.1982421875E-09;-0.168243408203125;1;79;1.50866061449051E-08;-5.10325282812119E-08;100 nA
-0.1708984375;7.7936599803229;-3.2806396484375E-09;-0.170623779296875;1;80;1.50866061449051E-08;-5.10325282812119E-08;100 nA
-0.17333984375;7.81807398026126;-3.155517578125E-09;-0.173095703125;1;81;1.50866061449051E-08;-5.10325282812119E-08;100 nA
-0.17578125;7.84248798019962;-2.6580810546875E-09;-0.175567626953125;1;82;1.50866061449051E-08;-5.10325282812119E-08;100 nA
-0.17822265625;7.86690198013798;-3.2989501953125E-09;-0.177947998046875;1;83;1.50866061449051E-08;-5.10325282812119E-08;100 nA
-0.1806640625;7.89131598007634;-2.9876708984375E-09;-0.180419921875;1;84;1.50866061449051E-08;-5.10325282812119E-08;100 nA
-0.18310546875;7.9157299800147;-3.50341796875E-09;-0.182830810546875;1;85;1.50866061449051E-08;-5.10325282812119E-08;100 nA
-0.185546875;7.94014397995306;-2.978515625E-09;-0.185302734375;1;86;1.50866061449051E-08;-5.10325282812119E-08;100 nA
-0.18798828125;7.96455797989142;-2.911376953125E-09;-0.187652587890625;1;87;1.50866061449051E-08;-5.10325282812119E-08;100 nA
-0.1904296875;7.98897197982978;-3.265380859375E-09;-0.19012451171875;1;88;1.50866061449051E-08;-5.10325282812119E-08;100 nA
-0.19287109375;8.01338597976815;-3.4698486328125E-09;-0.192596435546875;1;89;1.50866061449051E-08;-5.10325282812119E-08;100 nA
-0.1953125;8.03779997970651;-3.0548095703125E-09;-0.195037841796875;1;90;1.50866061449051E-08;-5.10325282812119E-08;100 nA
-0.19775390625;8.06221397964487;-3.1646728515625E-09;-0.197540283203125;1;91;1.50866061449051E-08;-5.10325282812119E-08;100 nA
-0.2001953125;8.08662797958323;-3.5247802734375E-09;-0.199951171875;1;92;1.50866061449051E-08;-5.10325282812119E-08;100 nA
-0.20263671875;8.11104197952159;-3.448486328125E-09;-0.20233154296875;1;93;1.50866061449051E-08;-5.10325282812119E-08;100 nA
-0.205078125;8.13545597945995;-3.204345703125E-09;-0.204833984375;1;94;1.50866061449051E-08;-5.10325282812119E-08;100 nA
-0.20751953125;8.15986997939831;-3.6468505859375E-09;-0.207275390625;1;95;1.50866061449051E-08;-5.10325282812119E-08;100 nA
-0.2099609375;8.18428397933667;-3.8116455078125E-09;-0.209716796875;1;96;1.50866061449051E-08;-5.10325282812119E-08;100 nA
-0.21240234375;8.20869797927503;-3.741455078125E-09;-0.212127685546875;1;97;1.50866061449051E-08;-5.10325282812119E-08;100 nA
-0.21484375;8.23311197921339;-4.0252685546875E-09;-0.214508056640625;1;98;1.50866061449051E-08;-5.10325282812119E-08;100 nA
-0.21728515625;8.25752597915175;-3.6651611328125E-09;-0.216949462890625;1;99;1.50866061449051E-08;-5.10325282812119E-08;100 nA
-0.2197265625;8.28193997909011;-4.01611328125E-09;-0.219451904296875;1;100;1.50866061449051E-08;-5.10325282812119E-08;100 nA
-0.22216796875;8.30635397902847;-3.875732421875E-09;-0.221923828125;1;101;1.50866061449051E-08;-5.10325282812119E-08;100 nA
-0.224609375;8.33076797896683;-4.0618896484375E-09;-0.224273681640625;1;102;1.50866061449051E-08;-5.10325282812119E-08;100 nA
-0.22705078125;8.35518197890519;-3.6468505859375E-09;-0.22674560546875;1;103;1.50866061449051E-08;-5.10325282812119E-08;100 nA
-0.2294921875;8.37959597884355;-4.43115234375E-09;-0.229217529296875;1;104;1.50866061449051E-08;-5.10325282812119E-08;100 nA
-0.23193359375;8.40400997878191;-4.4769287109375E-09;-0.231658935546875;1;105;1.50866061449051E-08;-5.10325282812119E-08;100 nA
-0.234375;8.42842397872028;-4.7760009765625E-09;-0.23406982421875;1;106;1.50866061449051E-08;-5.10325282812119E-08;100 nA
-0.23681640625;8.45283797865864;-4.8126220703125E-09;-0.236541748046875;1;107;1.50866061449051E-08;-5.10325282812119E-08;100 nA
-0.2392578125;8.477251978597;-5.084228515625E-09;-0.23895263671875;1;108;1.50866061449051E-08;-5.10325282812119E-08;100 nA
-0.24169921875;8.50166597853536;-5.1605224609375E-09;-0.24139404296875;1;109;1.50866061449051E-08;-5.10325282812119E-08;100 nA
-0.244140625;8.52607997847372;-5.4931640625E-09;-0.24383544921875;1;110;1.50866061449051E-08;-5.10325282812119E-08;100 nA
-0.24658203125;8.55049397841208;-6.097412109375E-09;-0.246307373046875;1;111;1.50866061449051E-08;-5.10325282812119E-08;100 nA
-0.2490234375;8.57490797835044;-6.3873291015625E-09;-0.24871826171875;1;112;1.50866061449051E-08;-5.10325282812119E-08;100 nA
-0.25146484375;8.5993219782888;-7.4371337890625E-09;-0.2510986328125;1;113;1.50866061449051E-08;-5.10325282812119E-08;100 nA
-0.25390625;8.62373597822716;-7.4462890625E-09;-0.253631591796875;1;114;1.50866061449051E-08;-5.10325282812119E-08;100 nA
-0.25634765625;8.64814997816552;-8.21533203125E-09;-0.256072998046875;1;115;1.50866061449051E-08;-5.10325282812119E-08;100 nA
-0.2587890625;8.67256397810388;-8.7249755859375E-09;-0.25848388671875;1;116;1.50866061449051E-08;-5.10325282812119E-08;100 nA
-0.26123046875;8.69697797804224;-9.7259521484375E-09;-0.260894775390625;1;117;1.50866061449051E-08;-5.10325282812119E-08;100 nA
-0.263671875;8.7213919779806;-1.043701171875E-08;-0.263336181640625;1;118;1.50866061449051E-08;-5.10325282812119E-08;100 nA
-0.26611328125;8.74580597791896;-1.1859130859375E-08;-0.2657470703125;1;119;1.50866061449051E-08;-5.10325282812119E-08;100 nA
-0.2685546875;8.77021997785732;-1.2786865234375E-08;-0.2681884765625;1;120;1.50866061449051E-08;-5.10325282812119E-08;100 nA
-0.27099609375;8.79463397779568;-1.43035888671875E-08;-0.2706298828125;1;121;1.50866061449051E-08;-5.10325282812119E-08;100 nA
-0.2734375;8.81904797773404;-1.56463623046875E-08;-0.27313232421875;1;122;1.50866061449051E-08;-5.10325282812119E-08;100 nA
-0.27587890625;8.8434619776724;-1.75201416015625E-08;-0.275543212890625;1;123;1.50866061449051E-08;-5.10325282812119E-08;100 nA
-0.2783203125;8.86787597761077;-1.912841796875E-08;-0.277984619140625;1;124;1.50866061449051E-08;-5.10325282812119E-08;100 nA
-0.28076171875;8.89228997754913;-2.0770263671875E-08;-0.28045654296875;1;125;1.50866061449051E-08;-5.10325282812119E-08;100 nA
-0.283203125;8.91670397748749;-2.26287841796875E-08;-0.282806396484375;1;126;1.50866061449051E-08;-5.10325282812119E-08;100 nA
-0.28564453125;8.94111797742585;-2.42645263671875E-08;-0.2852783203125;1;127;1.50866061449051E-08;-5.10325282812119E-08;100 nA
-0.2880859375;8.96553197736421;-2.68829345703125E-08;-0.287689208984375;1;128;1.50866061449051E-08;-5.10325282812119E-08;100 nA
-0.29052734375;8.98994597730257;-2.78533935546875E-08;-0.29010009765625;1;129;1.50866061449051E-08;-5.10325282812119E-08;100 nA
-0.29296875;9.01435997724093;-2.967529296875E-08;-0.292633056640625;1;130;1.50866061449051E-08;-5.10325282812119E-08;100 nA
-0.29541015625;9.03877397717929;-3.08929443359375E-08;-0.29498291015625;1;131;1.50866061449051E-08;-5.10325282812119E-08;100 nA
-0.2978515625;9.06318797711765;-3.2171630859375E-08;-0.29742431640625;1;132;1.50866061449051E-08;-5.10325282812119E-08;100 nA
-0.30029296875;9.08760197705601;-3.2958984375E-08;-0.299835205078125;1;133;1.50866061449051E-08;-5.10325282812119E-08;100 nA
-0.302734375;9.11201597699437;-3.3465576171875E-08;-0.30230712890625;1;134;1.50866061449051E-08;-5.10325282812119E-08;100 nA
-0.30517578125;9.13642997693273;-3.32000732421875E-08;-0.304779052734375;1;135;1.50866061449051E-08;-5.10325282812119E-08;100 nA
-0.3076171875;9.16084397687109;-3.2794189453125E-08;-0.3072509765625;1;136;1.50866061449051E-08;-5.10325282812119E-08;100 nA
-0.31005859375;9.18525797680945;-3.19061279296875E-08;-0.309661865234375;1;137;1.50866061449051E-08;-5.10325282812119E-08;100 nA
-0.3125;9.20967197674781;-3.08837890625E-08;-0.3121337890625;1;138;1.50866061449051E-08;-5.10325282812119E-08;100 nA
-0.31494140625;9.23408597668617;-2.90130615234375E-08;-0.3145751953125;1;139;1.50866061449051E-08;-5.10325282812119E-08;100 nA
-0.3173828125;9.25849997662453;-2.73681640625E-08;-0.316986083984375;1;140;1.50866061449051E-08;-5.10325282812119E-08;100 nA
-0.31982421875;9.2829139765629;-2.574462890625E-08;-0.319488525390625;1;141;1.50866061449051E-08;-5.10325282812119E-08;100 nA
-0.322265625;9.30732797650126;-2.38983154296875E-08;-0.3218994140625;1;142;1.50866061449051E-08;-5.10325282812119E-08;100 nA
-0.32470703125;9.33174197643962;-2.227783203125E-08;-0.324310302734375;1;143;1.50866061449051E-08;-5.10325282812119E-08;100 nA
-0.3271484375;9.35615597637798;-2.0416259765625E-08;-0.3267822265625;1;144;1.50866061449051E-08;-5.10325282812119E-08;100 nA
-0.32958984375;9.38056997631634;-1.9110107421875E-08;-0.329193115234375;1;145;1.50866061449051E-08;-5.10325282812119E-08;100 nA
-0.33203125;9.4049839762547;-1.75689697265625E-08;-0.331573486328125;1;146;1.50866061449051E-08;-5.10325282812119E-08;100 nA
-0.33447265625;9.42939797619306;-1.66015625E-08;-0.3341064453125;1;147;1.50866061449051E-08;-5.10325282812119E-08;100 nA
-0.3369140625;9.45381197613142;-1.54296875E-08;-0.336517333984375;1;148;1.50866061449051E-08;-5.10325282812119E-08;100 nA
-0.33935546875;9.47822597606978;-1.4544677734375E-08;-0.3389892578125;1;149;1.50866061449051E-08;-5.10325282812119E-08;100 nA
-0.341796875;9.50263997600814;-1.37298583984375E-08;-0.3414306640625;1;150;1.50866061449051E-08;-5.10325282812119E-08;100 nA
-0.34423828125;9.5270539759465;-1.3031005859375E-08;-0.3438720703125;1;151;1.50866061449051E-08;-5.10325282812119E-08;100 nA
-0.3466796875;9.55146797588486;-1.27197265625E-08;-0.346282958984375;1;152;1.50866061449051E-08;-5.10325282812119E-08;100 nA
-0.34912109375;9.57588197582322;-1.24053955078125E-08;-0.3487548828125;1;153;1.50866061449051E-08;-5.10325282812119E-08;100 nA
-0.3515625;9.60029597576158;-1.2347412109375E-08;-0.351165771484375;1;154;1.50866061449051E-08;-5.10325282812119E-08;100 nA
-0.35400390625;9.62470997569994;-1.17523193359375E-08;-0.353607177734375;1;155;1.50866061449051E-08;-5.10325282812119E-08;100 nA
-0.3564453125;9.6491239756383;-1.17095947265625E-08;-0.35601806640625;1;156;1.50866061449051E-08;-5.10325282812119E-08;100 nA
-0.35888671875;9.67353797557666;-1.173095703125E-08;-0.358551025390625;1;157;1.50866061449051E-08;-5.10325282812119E-08;100 nA
-0.361328125;9.69795197551502;-1.15631103515625E-08;-0.360992431640625;1;158;1.50866061449051E-08;-5.10325282812119E-08;100 nA
-0.36376953125;9.72236597545339;-1.1181640625E-08;-0.363372802734375;1;159;1.50866061449051E-08;-5.10325282812119E-08;100 nA
-0.3662109375;9.74677997539175;-1.160888671875E-08;-0.365814208984375;1;160;1.50866061449051E-08;-5.10325282812119E-08;100 nA
-0.36865234375;9.77119397533011;-1.15631103515625E-08;-0.3682861328125;1;161;1.50866061449051E-08;-5.10325282812119E-08;100 nA
-0.37109375;9.79560797526847;-1.197509765625E-08;-0.37066650390625;1;162;1.50866061449051E-08;-5.10325282812119E-08;100 nA
-0.37353515625;9.82002197520683;-1.1962890625E-08;-0.37310791015625;1;163;1.50866061449051E-08;-5.10325282812119E-08;100 nA
-0.3759765625;9.84443597514519;-1.21002197265625E-08;-0.375518798828125;1;164;1.50866061449051E-08;-5.10325282812119E-08;100 nA
-0.37841796875;9.86884997508355;-1.19659423828125E-08;-0.377960205078125;1;165;1.50866061449051E-08;-5.10325282812119E-08;100 nA
-0.380859375;9.89326397502191;-1.2255859375E-08;-0.38043212890625;1;166;1.50866061449051E-08;-5.10325282812119E-08;100 nA
-0.38330078125;9.91767797496027;-1.22589111328125E-08;-0.382904052734375;1;167;1.50866061449051E-08;-5.10325282812119E-08;100 nA
-0.3857421875;9.94209197489863;-1.21429443359375E-08;-0.3853759765625;1;168;1.50866061449051E-08;-5.10325282812119E-08;100 nA
-0.38818359375;9.96650597483699;-1.24786376953125E-08;-0.387725830078125;1;169;1.50866061449051E-08;-5.10325282812119E-08;100 nA
-0.390625;9.99091997477535;-1.24908447265625E-08;-0.390228271484375;1;170;1.50866061449051E-08;-5.10325282812119E-08;100 nA
-0.39306640625;10.0153339747137;-1.26953125E-08;-0.39263916015625;1;171;1.50866061449051E-08;-5.10325282812119E-08;100 nA
-0.3955078125;10.0397479746521;-1.28997802734375E-08;-0.395111083984375;1;172;1.50866061449051E-08;-5.10325282812119E-08;100 nA
-0.39794921875;10.0641619745904;-1.26983642578125E-08;-0.39752197265625;1;173;1.50866061449051E-08;-5.10325282812119E-08;100 nA
-0.400390625;10.0885759745288;-1.25640869140625E-08;-0.39996337890625;1;174;1.50866061449051E-08;-5.10325282812119E-08;100 nA
-0.40283203125;10.1129899744672;-1.31072998046875E-08;-0.40240478515625;1;175;1.50866061449051E-08;-5.10325282812119E-08;100 nA
-0.4052734375;10.1374039744055;-1.280517578125E-08;-0.404815673828125;1;176;1.50866061449051E-08;-5.10325282812119E-08;100 nA
-0.40771484375;10.1618179743439;-1.35162353515625E-08;-0.4073486328125;1;177;1.50866061449051E-08;-5.10325282812119E-08;100 nA
-0.41015625;10.1862319742822;-1.357421875E-08;-0.409698486328125;1;178;1.50866061449051E-08;-5.10325282812119E-08;100 nA
-0.41259765625;10.2106459742206;-1.3702392578125E-08;-0.412139892578125;1;179;1.50866061449051E-08;-5.10325282812119E-08;100 nA
-0.4150390625;10.235059974159;-1.38031005859375E-08;-0.414642333984375;1;180;1.50866061449051E-08;-5.10325282812119E-08;100 nA
-0.41748046875;10.2594739740973;-1.38336181640625E-08;-0.4169921875;1;181;1.50866061449051E-08;-5.10325282812119E-08;100 nA
-0.419921875;10.2838879740357;-1.43585205078125E-08;-0.419464111328125;1;182;1.50866061449051E-08;-5.10325282812119E-08;100 nA
-0.42236328125;10.308301973974;-1.4068603515625E-08;-0.421844482421875;1;183;1.50866061449051E-08;-5.10325282812119E-08;100 nA
-0.4248046875;10.3327159739124;-1.439208984375E-08;-0.424346923828125;1;184;1.50866061449051E-08;-5.10325282812119E-08;100 nA
-0.42724609375;10.3571299738508;-1.456298828125E-08;-0.426727294921875;1;185;1.50866061449051E-08;-5.10325282812119E-08;100 nA
-0.4296875;10.3815439737891;-1.4862060546875E-08;-0.429229736328125;1;186;1.50866061449051E-08;-5.10325282812119E-08;100 nA
-0.43212890625;10.4059579737275;-1.4691162109375E-08;-0.431671142578125;1;187;1.50866061449051E-08;-5.10325282812119E-08;100 nA
-0.4345703125;10.4303719736658;-1.49658203125E-08;-0.43414306640625;1;188;1.50866061449051E-08;-5.10325282812119E-08;100 nA
-0.43701171875;10.4547859736042;-1.52099609375E-08;-0.436614990234375;1;189;1.50866061449051E-08;-5.10325282812119E-08;100 nA
-0.439453125;10.4791999735426;-1.55181884765625E-08;-0.439056396484375;1;190;1.50866061449051E-08;-5.10325282812119E-08;100 nA
-0.44189453125;10.5036139734809;-1.5765380859375E-08;-0.44140625;1;191;1.50866061449051E-08;-5.10325282812119E-08;100 nA
-0.4443359375;10.5280279734193;-1.58203125E-08;-0.44384765625;1;192;1.50866061449051E-08;-5.10325282812119E-08;100 nA
-0.44677734375;10.5524419733576;-1.60003662109375E-08;-0.4462890625;1;193;1.50866061449051E-08;-5.10325282812119E-08;100 nA
-0.44921875;10.576855973296;-1.5924072265625E-08;-0.44873046875;1;194;1.50866061449051E-08;-5.10325282812119E-08;100 nA
-0.45166015625;10.6012699732344;-1.62872314453125E-08;-0.451202392578125;1;195;1.50866061449051E-08;-5.10325282812119E-08;100 nA
-0.44921875;10.6256839731727;-1.54052734375E-08;-0.448699951171875;1;196;1.50866061449051E-08;-5.10325282812119E-08;100 nA
-0.44677734375;10.6500979731111;-1.50421142578125E-08;-0.44635009765625;1;197;1.50866061449051E-08;-5.10325282812119E-08;100 nA
-0.4443359375;10.6745119730494;-1.42547607421875E-08;-0.44390869140625;1;198;1.50866061449051E-08;-5.10325282812119E-08;100 nA
-0.44189453125;10.6989259729878;-1.44744873046875E-08;-0.441436767578125;1;199;1.50866061449051E-08;-5.10325282812119E-08;100 nA
-0.439453125;10.7233399729262;-1.3665771484375E-08;-0.438995361328125;1;200;1.50866061449051E-08;-5.10325282812119E-08;100 nA
-0.43701171875;10.7477539728645;-1.328125E-08;-0.436553955078125;1;201;1.50866061449051E-08;-5.10325282812119E-08;100 nA
-0.4345703125;10.7721679728029;-1.28204345703125E-08;-0.434112548828125;1;202;1.50866061449051E-08;-5.10325282812119E-08;100 nA
-0.43212890625;10.7965819727413;-1.27349853515625E-08;-0.431671142578125;1;203;1.50866061449051E-08;-5.10325282812119E-08;100 nA
-0.4296875;10.8209959726796;-1.21734619140625E-08;-0.429229736328125;1;204;1.50866061449051E-08;-5.10325282812119E-08;100 nA
-0.42724609375;10.845409972618;-1.21734619140625E-08;-0.426727294921875;1;205;1.50866061449051E-08;-5.10325282812119E-08;100 nA
-0.4248046875;10.8698239725563;-1.182861328125E-08;-0.42437744140625;1;206;1.50866061449051E-08;-5.10325282812119E-08;100 nA
-0.42236328125;10.8942379724947;-1.12152099609375E-08;-0.421875;1;207;1.50866061449051E-08;-5.10325282812119E-08;100 nA
-0.419921875;10.9186519724331;-1.094970703125E-08;-0.419464111328125;1;208;1.50866061449051E-08;-5.10325282812119E-08;100 nA
-0.41748046875;10.9430659723714;-1.06903076171875E-08;-0.417022705078125;1;209;1.50866061449051E-08;-5.10325282812119E-08;100 nA
-0.4150390625;10.9674799723098;-1.0784912109375E-08;-0.414581298828125;1;210;1.50866061449051E-08;-5.10325282812119E-08;100 nA
-0.41259765625;10.9918939722481;-1.02569580078125E-08;-0.41217041015625;1;211;1.50866061449051E-08;-5.10325282812119E-08;100 nA
-0.41015625;11.0163079721865;-1.015625E-08;-0.40972900390625;1;212;1.50866061449051E-08;-5.10325282812119E-08;100 nA
-0.40771484375;11.0407219721249;-9.55810546875E-09;-0.407257080078125;1;213;1.50866061449051E-08;-5.10325282812119E-08;100 nA
-0.4052734375;11.0651359720632;-9.490966796875E-09;-0.40478515625;1;214;1.50866061449051E-08;-5.10325282812119E-08;100 nA
-0.40283203125;11.0895499720016;-9.2010498046875E-09;-0.40240478515625;1;215;1.50866061449051E-08;-5.10325282812119E-08;100 nA
-0.400390625;11.1139639719399;-8.87451171875E-09;-0.399993896484375;1;216;1.50866061449051E-08;-5.10325282812119E-08;100 nA
-0.39794921875;11.1383779718783;-8.67919921875E-09;-0.397491455078125;1;217;1.50866061449051E-08;-5.10325282812119E-08;100 nA
-0.3955078125;11.1627919718167;-8.5235595703125E-09;-0.395111083984375;1;218;1.50866061449051E-08;-5.10325282812119E-08;100 nA
-0.39306640625;11.187205971755;-8.67919921875E-09;-0.392669677734375;1;219;1.50866061449051E-08;-5.10325282812119E-08;100 nA
-0.390625;11.2116199716934;-8.21533203125E-09;-0.390167236328125;1;220;1.50866061449051E-08;-5.10325282812119E-08;100 nA
-0.38818359375;11.2360339716317;-7.9681396484375E-09;-0.387847900390625;1;221;1.50866061449051E-08;-5.10325282812119E-08;100 nA
-0.3857421875;11.2604479715701;-7.9864501953125E-09;-0.38531494140625;1;222;1.50866061449051E-08;-5.10325282812119E-08;100 nA
-0.38330078125;11.2848619715085;-7.51953125E-09;-0.38287353515625;1;223;1.50866061449051E-08;-5.10325282812119E-08;100 nA
-0.380859375;11.3092759714468;-7.2265625E-09;-0.38043212890625;1;224;1.50866061449051E-08;-5.10325282812119E-08;100 nA
-0.37841796875;11.3336899713852;-7.2998046875E-09;-0.37799072265625;1;225;1.50866061449051E-08;-5.10325282812119E-08;100 nA
-0.3759765625;11.3581039713235;-6.7962646484375E-09;-0.375518798828125;1;226;1.50866061449051E-08;-5.10325282812119E-08;100 nA
-0.37353515625;11.3825179712619;-6.9183349609375E-09;-0.373138427734375;1;227;1.50866061449051E-08;-5.10325282812119E-08;100 nA
-0.37109375;11.4069319712003;-6.3568115234375E-09;-0.370697021484375;1;228;1.50866061449051E-08;-5.10325282812119E-08;100 nA
-0.36865234375;11.4313459711386;-6.4697265625E-09;-0.3682861328125;1;229;1.50866061449051E-08;-5.10325282812119E-08;100 nA
-0.3662109375;11.455759971077;-5.8197021484375E-09;-0.365814208984375;1;230;1.50866061449051E-08;-5.10325282812119E-08;100 nA
-0.36376953125;11.4801739710153;-5.780029296875E-09;-0.36334228515625;1;231;1.50866061449051E-08;-5.10325282812119E-08;100 nA
-0.361328125;11.5045879709537;-5.4229736328125E-09;-0.3609619140625;1;232;1.50866061449051E-08;-5.10325282812119E-08;100 nA
-0.35888671875;11.5290019708921;-4.998779296875E-09;-0.358489990234375;1;233;1.50866061449051E-08;-5.10325282812119E-08;100 nA
-0.3564453125;11.5534159708304;-5.096435546875E-09;-0.356109619140625;1;234;1.50866061449051E-08;-5.10325282812119E-08;100 nA
-0.35400390625;11.5778299707688;-4.547119140625E-09;-0.3536376953125;1;235;1.50866061449051E-08;-5.10325282812119E-08;100 nA
-0.3515625;11.6022439707071;-4.21142578125E-09;-0.351165771484375;1;236;1.50866061449051E-08;-5.10325282812119E-08;100 nA
-0.34912109375;11.6266579706455;-3.8238525390625E-09;-0.3487548828125;1;237;1.50866061449051E-08;-5.10325282812119E-08;100 nA
-0.3466796875;11.6510719705839;-3.1768798828125E-09;-0.3463134765625;1;238;1.50866061449051E-08;-5.10325282812119E-08;100 nA
-0.34423828125;11.6754859705222;-2.313232421875E-09;-0.34381103515625;1;239;1.50866061449051E-08;-5.10325282812119E-08;100 nA
-0.341796875;11.6998999704606;-1.9989013671875E-09;-0.3414306640625;1;240;1.50866061449051E-08;-5.10325282812119E-08;100 nA
-0.33935546875;11.724313970399;-1.1505126953125E-09;-0.3389892578125;1;241;1.50866061449051E-08;-5.10325282812119E-08;100 nA
-0.3369140625;11.7487279703373;-5.950927734375E-10;-0.3365478515625;1;242;1.50866061449051E-08;-5.10325282812119E-08;100 nA
-0.33447265625;11.7731419702757;5.462646484375E-10;-0.3341064453125;1;243;1.50866061449051E-08;-5.10325282812119E-08;100 nA
-0.33203125;11.797555970214;1.6265869140625E-09;-0.3316650390625;1;244;1.50866061449051E-08;-5.10325282812119E-08;100 nA
-0.32958984375;11.8219699701524;3.5614013671875E-09;-0.3292236328125;1;245;1.50866061449051E-08;-5.10325282812119E-08;100 nA
-0.3271484375;11.8463839700908;4.11376953125E-09;-0.32684326171875;1;246;1.50866061449051E-08;-5.10325282812119E-08;100 nA
-0.32470703125;11.8707979700291;6.16455078125E-09;-0.324310302734375;1;247;1.50866061449051E-08;-5.10325282812119E-08;100 nA
-0.322265625;11.8952119699675;7.659912109375E-09;-0.321929931640625;1;248;1.50866061449051E-08;-5.10325282812119E-08;100 nA
-0.31982421875;11.9196259699058;9.6893310546875E-09;-0.319488525390625;1;249;1.50866061449051E-08;-5.10325282812119E-08;100 nA
-0.3173828125;11.9440399698442;1.1444091796875E-08;-0.317047119140625;1;250;1.50866061449051E-08;-5.10325282812119E-08;100 nA
-0.31494140625;11.9684539697826;1.35223388671875E-08;-0.314666748046875;1;251;1.50866061449051E-08;-5.10325282812119E-08;100 nA
-0.3125;11.9928679697209;1.53656005859375E-08;-0.312225341796875;1;252;1.50866061449051E-08;-5.10325282812119E-08;100 nA
-0.31005859375;12.0172819696593;1.7364501953125E-08;-0.30975341796875;1;253;1.50866061449051E-08;-5.10325282812119E-08;100 nA
-0.3076171875;12.0416959695976;1.92138671875E-08;-0.307342529296875;1;254;1.50866061449051E-08;-5.10325282812119E-08;100 nA
-0.30517578125;12.066109969536;2.078857421875E-08;-0.304840087890625;1;255;1.50866061449051E-08;-5.10325282812119E-08;100 nA
-0.302734375;12.0905239694744;2.188720703125E-08;-0.30242919921875;1;256;1.50866061449051E-08;-5.10325282812119E-08;100 nA
-0.30029296875;12.1149379694127;2.2686767578125E-08;-0.29998779296875;1;257;1.50866061449051E-08;-5.10325282812119E-08;100 nA
-0.2978515625;12.1393519693511;2.31781005859375E-08;-0.297515869140625;1;258;1.50866061449051E-08;-5.10325282812119E-08;100 nA
-0.29541015625;12.1637659692894;2.30133056640625E-08;-0.29510498046875;1;259;1.50866061449051E-08;-5.10325282812119E-08;100 nA
-0.29296875;12.1881799692278;2.3046875E-08;-0.292633056640625;1;260;1.50866061449051E-08;-5.10325282812119E-08;100 nA
-0.29052734375;12.2125939691662;2.288818359375E-08;-0.29022216796875;1;261;1.50866061449051E-08;-5.10325282812119E-08;100 nA
-0.2880859375;12.2370079691045;2.216796875E-08;-0.287811279296875;1;262;1.50866061449051E-08;-5.10325282812119E-08;100 nA
-0.28564453125;12.2614219690429;2.10479736328125E-08;-0.285369873046875;1;263;1.50866061449051E-08;-5.10325282812119E-08;100 nA
-0.283203125;12.2858359689812;1.98577880859375E-08;-0.282958984375;1;264;1.50866061449051E-08;-5.10325282812119E-08;100 nA
-0.28076171875;12.3102499689196;1.82220458984375E-08;-0.280426025390625;1;265;1.50866061449051E-08;-5.10325282812119E-08;100 nA
-0.2783203125;12.334663968858;1.6973876953125E-08;-0.278045654296875;1;266;1.50866061449051E-08;-5.10325282812119E-08;100 nA
-0.27587890625;12.3590779687963;1.5399169921875E-08;-0.275543212890625;1;267;1.50866061449051E-08;-5.10325282812119E-08;100 nA
-0.2734375;12.3834919687347;1.38427734375E-08;-0.273162841796875;1;268;1.50866061449051E-08;-5.10325282812119E-08;100 nA
-0.27099609375;12.407905968673;1.2347412109375E-08;-0.270660400390625;1;269;1.50866061449051E-08;-5.10325282812119E-08;100 nA
-0.2685546875;12.4323199686114;1.10626220703125E-08;-0.268218994140625;1;270;1.50866061449051E-08;-5.10325282812119E-08;100 nA
-0.26611328125;12.4567339685498;9.942626953125E-09;-0.2657470703125;1;271;1.50866061449051E-08;-5.10325282812119E-08;100 nA
-0.263671875;12.4811479684881;8.6029052734375E-09;-0.26336669921875;1;272;1.50866061449051E-08;-5.10325282812119E-08;100 nA
-0.26123046875;12.5055619684265;7.8521728515625E-09;-0.260894775390625;1;273;1.50866061449051E-08;-5.10325282812119E-08;100 nA
-0.2587890625;12.5299759683649;6.7962646484375E-09;-0.258453369140625;1;274;1.50866061449051E-08;-5.10325282812119E-08;100 nA
-0.25634765625;12.5543899683032;5.865478515625E-09;-0.256011962890625;1;275;1.50866061449051E-08;-5.10325282812119E-08;100 nA
-0.25390625;12.5788039682416;5.16357421875E-09;-0.25360107421875;1;276;1.50866061449051E-08;-5.10325282812119E-08;100 nA
-0.25146484375;12.6032179681799;4.339599609375E-09;-0.251129150390625;1;277;1.50866061449051E-08;-5.10325282812119E-08;100 nA
-0.2490234375;12.6276319681183;4.1290283203125E-09;-0.248748779296875;1;278;1.50866061449051E-08;-5.10325282812119E-08;100 nA
-0.24658203125;12.6520459680567;3.7689208984375E-09;-0.246246337890625;1;279;1.50866061449051E-08;-5.10325282812119E-08;100 nA
-0.244140625;12.676459967995;3.3355712890625E-09;-0.243865966796875;1;280;1.50866061449051E-08;-5.10325282812119E-08;100 nA
-0.24169921875;12.7008739679334;2.7008056640625E-09;-0.241424560546875;1;281;1.50866061449051E-08;-5.10325282812119E-08;100 nA
-0.2392578125;12.7252879678717;2.899169921875E-09;-0.238922119140625;1;282;1.50866061449051E-08;-5.10325282812119E-08;100 nA
-0.23681640625;12.7497019678101;2.0294189453125E-09;-0.236541748046875;1;283;1.50866061449051E-08;-5.10325282812119E-08;100 nA
-0.234375;12.7741159677485;1.800537109375E-09;-0.234100341796875;1;284;1.50866061449051E-08;-5.10325282812119E-08;100 nA
-0.23193359375;12.7985299676868;1.7181396484375E-09;-0.231658935546875;1;285;1.50866061449051E-08;-5.10325282812119E-08;100 nA
-0.2294921875;12.8229439676252;1.666259765625E-09;-0.22918701171875;1;286;1.50866061449051E-08;-5.10325282812119E-08;100 nA
-0.22705078125;12.8473579675635;1.458740234375E-09;-0.22674560546875;1;287;1.50866061449051E-08;-5.10325282812119E-08;100 nA
-0.224609375;12.8717719675019;1.3671875E-09;-0.224334716796875;1;288;1.50866061449051E-08;-5.10325282812119E-08;100 nA
-0.22216796875;12.8961859674403;1.373291015625E-09;-0.221832275390625;1;289;1.50866061449051E-08;-5.10325282812119E-08;100 nA
-0.2197265625;12.9205999673786;1.3214111328125E-09;-0.219451904296875;1;290;1.50866061449051E-08;-5.10325282812119E-08;100 nA
-0.21728515625;12.945013967317;1.1688232421875E-09;-0.217010498046875;1;291;1.50866061449051E-08;-5.10325282812119E-08;100 nA
-0.21484375;12.9694279672553;9.429931640625E-10;-0.214599609375;1;292;1.50866061449051E-08;-5.10325282812119E-08;100 nA
-0.21240234375;12.9938419671937;9.490966796875E-10;-0.21209716796875;1;293;1.50866061449051E-08;-5.10325282812119E-08;100 nA
-0.2099609375;13.0182559671321;8.148193359375E-10;-0.20965576171875;1;294;1.50866061449051E-08;-5.10325282812119E-08;100 nA
-0.20751953125;13.0426699670704;1.043701171875E-09;-0.20721435546875;1;295;1.50866061449051E-08;-5.10325282812119E-08;100 nA
-0.205078125;13.0670839670088;1.0589599609375E-09;-0.204803466796875;1;296;1.50866061449051E-08;-5.10325282812119E-08;100 nA
-0.20263671875;13.0914979669471;1.019287109375E-09;-0.202392578125;1;297;1.50866061449051E-08;-5.10325282812119E-08;100 nA
-0.2001953125;13.1159119668855;1.0009765625E-09;-0.199920654296875;1;298;1.50866061449051E-08;-5.10325282812119E-08;100 nA
-0.19775390625;13.1403259668239;9.429931640625E-10;-0.197509765625;1;299;1.50866061449051E-08;-5.10325282812119E-08;100 nA
-0.1953125;13.1647399667622;8.575439453125E-10;-0.195037841796875;1;300;1.50866061449051E-08;-5.10325282812119E-08;100 nA
-0.19287109375;13.1891539667006;1.0528564453125E-09;-0.192626953125;1;301;1.50866061449051E-08;-5.10325282812119E-08;100 nA
-0.1904296875;13.2135679666389;1.2115478515625E-09;-0.190155029296875;1;302;1.50866061449051E-08;-5.10325282812119E-08;100 nA
-0.18798828125;13.2379819665773;8.7890625E-10;-0.187774658203125;1;303;1.50866061449051E-08;-5.10325282812119E-08;100 nA
-0.185546875;13.2623959665157;8.056640625E-10;-0.18524169921875;1;304;1.50866061449051E-08;-5.10325282812119E-08;100 nA
-0.18310546875;13.286809966454;4.94384765625E-10;-0.18280029296875;1;305;1.50866061449051E-08;-5.10325282812119E-08;100 nA
-0.1806640625;13.3112239663924;6.866455078125E-10;-0.180419921875;1;306;1.50866061449051E-08;-5.10325282812119E-08;100 nA
-0.17822265625;13.3356379663308;9.33837890625E-10;-0.177978515625;1;307;1.50866061449051E-08;-5.10325282812119E-08;100 nA
-0.17578125;13.3600519662691;8.636474609375E-10;-0.175506591796875;1;308;1.50866061449051E-08;-5.10325282812119E-08;100 nA
-0.17333984375;13.3844659662075;8.30078125E-10;-0.173126220703125;1;309;1.50866061449051E-08;-5.10325282812119E-08;100 nA
-0.1708984375;13.4088799661458;8.36181640625E-10;-0.17071533203125;1;310;1.50866061449051E-08;-5.10325282812119E-08;100 nA
-0.16845703125;13.4332939660842;8.4228515625E-10;-0.168182373046875;1;311;1.50866061449051E-08;-5.10325282812119E-08;100 nA
-0.166015625;13.4577079660226;9.33837890625E-10;-0.165771484375;1;312;1.50866061449051E-08;-5.10325282812119E-08;100 nA
-0.16357421875;13.4821219659609;9.368896484375E-10;-0.163421630859375;1;313;1.50866061449051E-08;-5.10325282812119E-08;100 nA
-0.1611328125;13.5065359658993;1.1566162109375E-09;-0.160888671875;1;314;1.50866061449051E-08;-5.10325282812119E-08;100 nA
-0.15869140625;13.5309499658376;1.0498046875E-09;-0.15850830078125;1;315;1.50866061449051E-08;-5.10325282812119E-08;100 nA
-0.15625;13.555363965776;1.275634765625E-09;-0.15606689453125;1;316;1.50866061449051E-08;-5.10325282812119E-08;100 nA
-0.15380859375;13.5797779657144;1.1505126953125E-09;-0.153594970703125;1;317;1.50866061449051E-08;-5.10325282812119E-08;100 nA
-0.1513671875;13.6041919656527;1.055908203125E-09;-0.151092529296875;1;318;1.50866061449051E-08;-5.10325282812119E-08;100 nA
-0.14892578125;13.6286059655911;8.544921875E-10;-0.148712158203125;1;319;1.50866061449051E-08;-5.10325282812119E-08;100 nA
-0.146484375;13.6530199655294;1.2176513671875E-09;-0.146270751953125;1;320;1.50866061449051E-08;-5.10325282812119E-08;100 nA
-0.14404296875;13.6774339654678;9.857177734375E-10;-0.143829345703125;1;321;1.50866061449051E-08;-5.10325282812119E-08;100 nA
-0.1416015625;13.7018479654062;6.927490234375E-10;-0.141387939453125;1;322;1.50866061449051E-08;-5.10325282812119E-08;100 nA
-0.13916015625;13.7262619653445;1.0284423828125E-09;-0.139007568359375;1;323;1.50866061449051E-08;-5.10325282812119E-08;100 nA
-0.13671875;13.7506759652829;1.06201171875E-09;-0.136505126953125;1;324;1.50866061449051E-08;-5.10325282812119E-08;100 nA
-0.13427734375;13.7750899652212;1.50146484375E-09;-0.134033203125;1;325;1.50866061449051E-08;-5.10325282812119E-08;100 nA
-0.1318359375;13.7995039651596;8.97216796875E-10;-0.131622314453125;1;326;1.50866061449051E-08;-5.10325282812119E-08;100 nA
-0.12939453125;13.823917965098;1.1993408203125E-09;-0.129180908203125;1;327;1.50866061449051E-08;-5.10325282812119E-08;100 nA
-0.126953125;13.8483319650363;1.3153076171875E-09;-0.126800537109375;1;328;1.50866061449051E-08;-5.10325282812119E-08;100 nA
-0.12451171875;13.8727459649747;1.0498046875E-09;-0.12432861328125;1;329;1.50866061449051E-08;-5.10325282812119E-08;100 nA
-0.1220703125;13.897159964913;1.3397216796875E-09;-0.121917724609375;1;330;1.50866061449051E-08;-5.10325282812119E-08;100 nA
-0.11962890625;13.9215739648514;1.519775390625E-09;-0.11944580078125;1;331;1.50866061449051E-08;-5.10325282812119E-08;100 nA
-0.1171875;13.9459879647898;1.3153076171875E-09;-0.117034912109375;1;332;1.50866061449051E-08;-5.10325282812119E-08;100 nA
-0.11474609375;13.9704019647281;1.190185546875E-09;-0.114501953125;1;333;1.50866061449051E-08;-5.10325282812119E-08;100 nA
-0.1123046875;13.9948159646665;1.4251708984375E-09;-0.11212158203125;1;334;1.50866061449051E-08;-5.10325282812119E-08;100 nA
-0.10986328125;14.0192299646048;1.214599609375E-09;-0.109649658203125;1;335;1.50866061449051E-08;-5.10325282812119E-08;100 nA
-0.107421875;14.0436439645432;1.3580322265625E-09;-0.107208251953125;1;336;1.50866061449051E-08;-5.10325282812119E-08;100 nA
-0.10498046875;14.0680579644816;1.4862060546875E-09;-0.10479736328125;1;337;1.50866061449051E-08;-5.10325282812119E-08;100 nA
-0.1025390625;14.0924719644199;1.3885498046875E-09;-0.102386474609375;1;338;1.50866061449051E-08;-5.10325282812119E-08;100 nA
-0.10009765625;14.1168859643583;1.226806640625E-09;-0.099945068359375;1;339;1.50866061449051E-08;-5.10325282812119E-08;100 nA
-0.09765625;14.1412999642966;1.751708984375E-09;-0.097503662109375;1;340;1.50866061449051E-08;-5.10325282812119E-08;100 nA
-0.09521484375;14.165713964235;1.275634765625E-09;-0.095062255859375;1;341;1.50866061449051E-08;-5.10325282812119E-08;100 nA
-0.0927734375;14.1901279641734;1.641845703125E-09;-0.092559814453125;1;342;1.50866061449051E-08;-5.10325282812119E-08;100 nA
-0.09033203125;14.2145419641117;1.6143798828125E-09;-0.090179443359375;1;343;1.50866061449051E-08;-5.10325282812119E-08;100 nA
-0.087890625;14.2389559640501;1.4068603515625E-09;-0.0877685546875;1;344;1.50866061449051E-08;-5.10325282812119E-08;100 nA
-0.08544921875;14.2633699639885;1.50146484375E-09;-0.085357666015625;1;345;1.50866061449051E-08;-5.10325282812119E-08;100 nA
-0.0830078125;14.2877839639268;1.69677734375E-09;-0.082855224609375;1;346;1.50866061449051E-08;-5.10325282812119E-08;100 nA
-0.08056640625;14.3121979638652;1.2359619140625E-09;-0.080474853515625;1;347;1.50866061449051E-08;-5.10325282812119E-08;100 nA
-0.078125;14.3366119638035;1.605224609375E-09;-0.077972412109375;1;348;1.50866061449051E-08;-5.10325282812119E-08;100 nA
-0.07568359375;14.3610259637419;1.361083984375E-09;-0.075592041015625;1;349;1.50866061449051E-08;-5.10325282812119E-08;100 nA
-0.0732421875;14.3854399636803;1.3336181640625E-09;-0.0731201171875;1;350;1.50866061449051E-08;-5.10325282812119E-08;100 nA
-0.07080078125;14.4098539636186;1.35498046875E-09;-0.07061767578125;1;351;1.50866061449051E-08;-5.10325282812119E-08;100 nA
-0.068359375;14.434267963557;1.312255859375E-09;-0.068206787109375;1;352;1.50866061449051E-08;-5.10325282812119E-08;100 nA
-0.06591796875;14.4586819634953;1.7669677734375E-09;-0.0657958984375;1;353;1.50866061449051E-08;-5.10325282812119E-08;100 nA
-0.0634765625;14.4830959634337;1.2237548828125E-09;-0.063323974609375;1;354;1.50866061449051E-08;-5.10325282812119E-08;100 nA
-0.06103515625;14.5075099633721;1.7669677734375E-09;-0.0609130859375;1;355;1.50866061449051E-08;-5.10325282812119E-08;100 nA
-0.05859375;14.5319239633104;1.6265869140625E-09;-0.058441162109375;1;356;1.50866061449051E-08;-5.10325282812119E-08;100 nA
-0.05615234375;14.5563379632488;1.7059326171875E-09;-0.05596923828125;1;357;1.50866061449051E-08;-5.10325282812119E-08;100 nA
-0.0537109375;14.5807519631871;1.47705078125E-09;-0.053558349609375;1;358;1.50866061449051E-08;-5.10325282812119E-08;100 nA
-0.05126953125;14.6051659631255;1.6448974609375E-09;-0.05108642578125;1;359;1.50866061449051E-08;-5.10325282812119E-08;100 nA
-0.048828125;14.6295799630639;1.7059326171875E-09;-0.0486724853515625;1;360;1.50866061449051E-08;-5.10325282812119E-08;100 nA
-0.04638671875;14.6539939630022;2.0660400390625E-09;-0.0462158203125;1;361;1.50866061449051E-08;-5.10325282812119E-08;100 nA
-0.0439453125;14.6784079629406;1.593017578125E-09;-0.0437835693359375;1;362;1.50866061449051E-08;-5.10325282812119E-08;100 nA
-0.04150390625;14.7028219628789;1.6571044921875E-09;-0.041351318359375;1;363;1.50866061449051E-08;-5.10325282812119E-08;100 nA
-0.0390625;14.7272359628173;1.617431640625E-09;-0.038897705078125;1;364;1.50866061449051E-08;-5.10325282812119E-08;100 nA
-0.03662109375;14.7516499627557;1.5289306640625E-09;-0.0364471435546875;1;365;1.50866061449051E-08;-5.10325282812119E-08;100 nA
-0.0341796875;14.776063962694;1.7730712890625E-09;-0.034014892578125;1;366;1.50866061449051E-08;-5.10325282812119E-08;100 nA
-0.03173828125;14.8004779626324;2.1636962890625E-09;-0.03157958984375;1;367;1.50866061449051E-08;-5.10325282812119E-08;100 nA
-0.029296875;14.8248919625707;1.995849609375E-09;-0.02913818359375;1;368;1.50866061449051E-08;-5.10325282812119E-08;100 nA
-0.02685546875;14.8493059625091;1.5716552734375E-09;-0.02669677734375;1;369;1.50866061449051E-08;-5.10325282812119E-08;100 nA
-0.0244140625;14.8737199624475;1.9683837890625E-09;-0.0242584228515625;1;370;1.50866061449051E-08;-5.10325282812119E-08;100 nA
-0.02197265625;14.8981339623858;1.873779296875E-09;-0.0218414306640625;1;371;1.50866061449051E-08;-5.10325282812119E-08;100 nA
-0.01953125;14.9225479623242;1.995849609375E-09;-0.01939697265625;1;372;1.50866061449051E-08;-5.10325282812119E-08;100 nA
-0.01708984375;14.9469619622625;1.64794921875E-09;-0.016961669921875;1;373;1.50866061449051E-08;-5.10325282812119E-08;100 nA
-0.0146484375;14.9713759622009;2.0965576171875E-09;-0.0145111083984375;1;374;1.50866061449051E-08;-5.10325282812119E-08;100 nA
-0.01220703125;14.9957899621393;1.74560546875E-09;-0.01207275390625;1;375;1.50866061449051E-08;-5.10325282812119E-08;100 nA
-0.009765625;15.0202039620776;2.1759033203125E-09;-0.0096405029296875;1;376;1.50866061449051E-08;-5.10325282812119E-08;100 nA
-0.00732421875;15.044617962016;1.85546875E-09;-0.0072174072265625;1;377;1.50866061449051E-08;-5.10325282812119E-08;100 nA
-0.0048828125;15.0690319619544;1.8218994140625E-09;-0.00475158691406249;1;378;1.50866061449051E-08;-5.10325282812119E-08;100 nA
-0.00244140625;15.0934459618927;1.580810546875E-09;-0.00231018066406249;1;379;1.50866061449051E-08;-5.10325282812119E-08;100 nA
0;15.1178599618311;1.8310546875E-09;0.0001068115234375;1;380;1.50866061449051E-08;-5.10325282812119E-08;100 nA
