Potential applied (V);Time (s);WE(1).Current (A);WE(1).Potential (V);Scan;Index;Q+;Q-;Current range
0.00244140625;5.8089549853338;-4.33349609375E-10;0.0025604248046875;1;1;2.14223563671112E-08;-6.51564449071884E-08;100 nA
0.0048828125;5.83336898527216;2.227783203125E-10;0.0050048828125;1;2;2.14223563671112E-08;-6.51564449071884E-08;100 nA
0.00732421875;5.85778298521052;3.0517578125E-12;0.0074310302734375;1;3;2.14223563671112E-08;-6.51564449071884E-08;100 nA
0.009765625;5.88219698514888;2.25830078125E-10;0.0098724365234375;1;4;2.14223563671112E-08;-6.51564449071884E-08;100 nA
0.01220703125;5.90661098508724;3.23486328125E-10;0.012322998046875;1;5;2.14223563671112E-08;-6.51564449071884E-08;100 nA
0.009765625;5.9310249850256;-3.0517578125E-12;0.00987854003906249;1;6;2.14223563671112E-08;-6.51564449071884E-08;100 nA
0.00732421875;5.95543898496396;-3.5400390625E-10;0.0074462890625;1;7;2.14223563671112E-08;-6.51564449071884E-08;100 nA
0.0048828125;5.97985298490232;-5.096435546875E-10;0.0050048828125;1;8;2.14223563671112E-08;-6.51564449071884E-08;100 nA
0.00244140625;6.00426698484068;-5.584716796875E-10;0.00255126953125;1;9;2.14223563671112E-08;-6.51564449071884E-08;100 nA
0;6.02868098477904;-8.941650390625E-10;0.0001068115234375;1;10;2.14223563671112E-08;-6.51564449071884E-08;100 nA
-0.00244140625;6.0530949847174;-9.063720703125E-10;-0.00231323242187501;1;11;2.14223563671112E-08;-6.51564449071884E-08;100 nA
-0.0048828125;6.07750898465576;-9.674072265625E-10;-0.00476989746093751;1;12;2.14223563671112E-08;-6.51564449071884E-08;100 nA
-0.00732421875;6.10192298459413;-1.116943359375E-09;-0.00718994140625;1;13;2.14223563671112E-08;-6.51564449071884E-08;100 nA
-0.009765625;6.12633698453249;-1.287841796875E-09;-0.0096435546875;1;14;2.14223563671112E-08;-6.51564449071884E-08;100 nA
-0.01220703125;6.15075098447085;-1.220703125E-09;-0.0120758056640625;1;15;2.14223563671112E-08;-6.51564449071884E-08;100 nA
-0.0146484375;6.17516498440921;-1.64794921875E-09;-0.01451416015625;1;16;2.14223563671112E-08;-6.51564449071884E-08;100 nA
-0.01708984375;6.19957898434757;-9.94873046875E-10;-0.0169586181640625;1;17;2.14223563671112E-08;-6.51564449071884E-08;100 nA
-0.01953125;6.22399298428593;-1.470947265625E-09;-0.019378662109375;1;18;2.14223563671112E-08;-6.51564449071884E-08;100 nA
-0.02197265625;6.24840698422429;-1.5716552734375E-09;-0.0218109130859375;1;19;2.14223563671112E-08;-6.51564449071884E-08;100 nA
-0.0244140625;6.27282098416265;-1.7791748046875E-09;-0.0242706298828125;1;20;2.14223563671112E-08;-6.51564449071884E-08;100 nA
-0.02685546875;6.29723498410101;-1.6632080078125E-09;-0.026708984375;1;21;2.14223563671112E-08;-6.51564449071884E-08;100 nA
-0.029296875;6.32164898403937;-1.983642578125E-09;-0.0291534423828125;1;22;2.14223563671112E-08;-6.51564449071884E-08;100 nA
-0.03173828125;6.34606298397773;-1.995849609375E-09;-0.0315765380859375;1;23;2.14223563671112E-08;-6.51564449071884E-08;100 nA
-0.0341796875;6.37047698391609;-1.9561767578125E-09;-0.034002685546875;1;24;2.14223563671112E-08;-6.51564449071884E-08;100 nA
-0.03662109375;6.39489098385445;-2.001953125E-09;-0.0364532470703125;1;25;2.14223563671112E-08;-6.51564449071884E-08;100 nA
-0.0390625;6.41930498379281;-1.8798828125E-09;-0.038909912109375;1;26;2.14223563671112E-08;-6.51564449071884E-08;100 nA
-0.04150390625;6.44371898373117;-2.142333984375E-09;-0.04134521484375;1;27;2.14223563671112E-08;-6.51564449071884E-08;100 nA
-0.0439453125;6.46813298366953;-1.727294921875E-09;-0.043780517578125;1;28;2.14223563671112E-08;-6.51564449071884E-08;100 nA
-0.04638671875;6.49254698360789;-2.23388671875E-09;-0.0462371826171875;1;29;2.14223563671112E-08;-6.51564449071884E-08;100 nA
-0.048828125;6.51696098354626;-1.8096923828125E-09;-0.048663330078125;1;30;2.14223563671112E-08;-6.51564449071884E-08;100 nA
-0.05126953125;6.54137498348462;-2.5054931640625E-09;-0.0511474609375;1;31;2.14223563671112E-08;-6.51564449071884E-08;100 nA
-0.0537109375;6.56578898342298;-1.922607421875E-09;-0.0535888671875;1;32;2.14223563671112E-08;-6.51564449071884E-08;100 nA
-0.05615234375;6.59020298336134;-2.2552490234375E-09;-0.055999755859375;1;33;2.14223563671112E-08;-6.51564449071884E-08;100 nA
-0.05859375;6.6146169832997;-1.8341064453125E-09;-0.0584716796875;1;34;2.14223563671112E-08;-6.51564449071884E-08;100 nA
-0.06103515625;6.63903098323806;-2.3590087890625E-09;-0.060882568359375;1;35;2.14223563671112E-08;-6.51564449071884E-08;100 nA
-0.0634765625;6.66344498317642;-1.9805908203125E-09;-0.063262939453125;1;36;2.14223563671112E-08;-6.51564449071884E-08;100 nA
-0.06591796875;6.68785898311478;-2.508544921875E-09;-0.0657958984375;1;37;2.14223563671112E-08;-6.51564449071884E-08;100 nA
-0.068359375;6.71227298305314;-2.44140625E-09;-0.0682373046875;1;38;2.14223563671112E-08;-6.51564449071884E-08;100 nA
-0.07080078125;6.7366869829915;-2.294921875E-09;-0.0706787109375;1;39;2.14223563671112E-08;-6.51564449071884E-08;100 nA
-0.0732421875;6.76110098292986;-2.056884765625E-09;-0.073089599609375;1;40;2.14223563671112E-08;-6.51564449071884E-08;100 nA
-0.07568359375;6.78551498286822;-2.3284912109375E-09;-0.075531005859375;1;41;2.14223563671112E-08;-6.51564449071884E-08;100 nA
-0.078125;6.80992898280658;-2.7984619140625E-09;-0.078033447265625;1;42;2.14223563671112E-08;-6.51564449071884E-08;100 nA
-0.08056640625;6.83434298274494;-2.5482177734375E-09;-0.0804443359375;1;43;2.14223563671112E-08;-6.51564449071884E-08;100 nA
-0.0830078125;6.8587569826833;-2.630615234375E-09;-0.082855224609375;1;44;2.14223563671112E-08;-6.51564449071884E-08;100 nA
-0.08544921875;6.88317098262166;-2.4322509765625E-09;-0.0853271484375;1;45;2.14223563671112E-08;-6.51564449071884E-08;100 nA
-0.087890625;6.90758498256002;-2.9632568359375E-09;-0.0877685546875;1;46;2.14223563671112E-08;-6.51564449071884E-08;100 nA
-0.09033203125;6.93199898249838;-2.593994140625E-09;-0.090179443359375;1;47;2.14223563671112E-08;-6.51564449071884E-08;100 nA
-0.0927734375;6.95641298243675;-2.5299072265625E-09;-0.092620849609375;1;48;2.14223563671112E-08;-6.51564449071884E-08;100 nA
-0.09521484375;6.98082698237511;-2.520751953125E-09;-0.095123291015625;1;49;2.14223563671112E-08;-6.51564449071884E-08;100 nA
-0.09765625;7.00524098231347;-2.69775390625E-09;-0.097564697265625;1;50;2.14223563671112E-08;-6.51564449071884E-08;100 nA
-0.10009765625;7.02965498225183;-2.447509765625E-09;-0.099884033203125;1;51;2.14223563671112E-08;-6.51564449071884E-08;100 nA
-0.1025390625;7.05406898219019;-2.6031494140625E-09;-0.102386474609375;1;52;2.14223563671112E-08;-6.51564449071884E-08;100 nA
-0.10498046875;7.07848298212855;-2.716064453125E-09;-0.104766845703125;1;53;2.14223563671112E-08;-6.51564449071884E-08;100 nA
-0.107421875;7.10289698206691;-2.8656005859375E-09;-0.10723876953125;1;54;2.14223563671112E-08;-6.51564449071884E-08;100 nA
-0.10986328125;7.12731098200527;-3.0181884765625E-09;-0.10968017578125;1;55;2.14223563671112E-08;-6.51564449071884E-08;100 nA
-0.1123046875;7.15172498194363;-2.813720703125E-09;-0.112060546875;1;56;2.14223563671112E-08;-6.51564449071884E-08;100 nA
-0.11474609375;7.17613898188199;-2.911376953125E-09;-0.11456298828125;1;57;2.14223563671112E-08;-6.51564449071884E-08;100 nA
-0.1171875;7.20055298182035;-2.630615234375E-09;-0.11700439453125;1;58;2.14223563671112E-08;-6.51564449071884E-08;100 nA
-0.11962890625;7.22496698175871;-2.911376953125E-09;-0.119476318359375;1;59;2.14223563671112E-08;-6.51564449071884E-08;100 nA
-0.1220703125;7.24938098169707;-2.484130859375E-09;-0.121917724609375;1;60;2.14223563671112E-08;-6.51564449071884E-08;100 nA
-0.12451171875;7.27379498163543;-2.7618408203125E-09;-0.1243896484375;1;61;2.14223563671112E-08;-6.51564449071884E-08;100 nA
-0.126953125;7.29820898157379;-2.630615234375E-09;-0.12677001953125;1;62;2.14223563671112E-08;-6.51564449071884E-08;100 nA
-0.12939453125;7.32262298151215;-2.94189453125E-09;-0.12921142578125;1;63;2.14223563671112E-08;-6.51564449071884E-08;100 nA
-0.1318359375;7.34703698145051;-2.7984619140625E-09;-0.13165283203125;1;64;2.14223563671112E-08;-6.51564449071884E-08;100 nA
-0.13427734375;7.37145098138888;-2.8778076171875E-09;-0.134063720703125;1;65;2.14223563671112E-08;-6.51564449071884E-08;100 nA
-0.13671875;7.39586498132724;-2.8472900390625E-09;-0.136505126953125;1;66;2.14223563671112E-08;-6.51564449071884E-08;100 nA
-0.13916015625;7.4202789812656;-2.8900146484375E-09;-0.138885498046875;1;67;2.14223563671112E-08;-6.51564449071884E-08;100 nA
-0.1416015625;7.44469298120396;-2.972412109375E-09;-0.141357421875;1;68;2.14223563671112E-08;-6.51564449071884E-08;100 nA
-0.14404296875;7.46910698114232;-3.131103515625E-09;-0.143798828125;1;69;2.14223563671112E-08;-6.51564449071884E-08;100 nA
-0.146484375;7.49352098108068;-2.996826171875E-09;-0.146240234375;1;70;2.14223563671112E-08;-6.51564449071884E-08;100 nA
-0.14892578125;7.51793498101904;-2.7587890625E-09;-0.148651123046875;1;71;2.14223563671112E-08;-6.51564449071884E-08;100 nA
-0.1513671875;7.5423489809574;-3.0853271484375E-09;-0.15106201171875;1;72;2.14223563671112E-08;-6.51564449071884E-08;100 nA
-0.15380859375;7.56676298089576;-2.734375E-09;-0.153564453125;1;73;2.14223563671112E-08;-6.51564449071884E-08;100 nA
-0.15625;7.59117698083412;-3.2196044921875E-09;-0.156036376953125;1;74;2.14223563671112E-08;-6.51564449071884E-08;100 nA
-0.15869140625;7.61559098077248;-2.911376953125E-09;-0.158416748046875;1;75;2.14223563671112E-08;-6.51564449071884E-08;100 nA
-0.1611328125;7.64000498071084;-3.2318115234375E-09;-0.160888671875;1;76;2.14223563671112E-08;-6.51564449071884E-08;100 nA
-0.16357421875;7.6644189806492;-2.7130126953125E-09;-0.16339111328125;1;77;2.14223563671112E-08;-6.51564449071884E-08;100 nA
-0.166015625;7.68883298058756;-3.2867431640625E-09;-0.165771484375;1;78;2.14223563671112E-08;-6.51564449071884E-08;100 nA
-0.16845703125;7.71324698052592;-2.972412109375E-09;-0.168212890625;1;79;2.14223563671112E-08;-6.51564449071884E-08;100 nA
-0.1708984375;7.73766098046428;-3.33251953125E-09;-0.170684814453125;1;80;2.14223563671112E-08;-6.51564449071884E-08;100 nA
-0.17333984375;7.76207498040264;-3.082275390625E-09;-0.173065185546875;1;81;2.14223563671112E-08;-6.51564449071884E-08;100 nA
-0.17578125;7.78648898034101;-3.363037109375E-09;-0.175537109375;1;82;2.14223563671112E-08;-6.51564449071884E-08;100 nA
-0.17822265625;7.81090298027937;-3.253173828125E-09;-0.177978515625;1;83;2.14223563671112E-08;-6.51564449071884E-08;100 nA
-0.1806640625;7.83531698021773;-2.9266357421875E-09;-0.180419921875;1;84;2.14223563671112E-08;-6.51564449071884E-08;100 nA
-0.18310546875;7.85973098015609;-3.6834716796875E-09;-0.182830810546875;1;85;2.14223563671112E-08;-6.51564449071884E-08;100 nA
-0.185546875;7.88414498009445;-3.02734375E-09;-0.185302734375;1;86;2.14223563671112E-08;-6.51564449071884E-08;100 nA
-0.18798828125;7.90855898003281;-3.5797119140625E-09;-0.18768310546875;1;87;2.14223563671112E-08;-6.51564449071884E-08;100 nA
-0.1904296875;7.93297297997117;-2.9205322265625E-09;-0.190155029296875;1;88;2.14223563671112E-08;-6.51564449071884E-08;100 nA
-0.19287109375;7.95738697990953;-3.7353515625E-09;-0.19256591796875;1;89;2.14223563671112E-08;-6.51564449071884E-08;100 nA
-0.1953125;7.98180097984789;-3.28369140625E-09;-0.195037841796875;1;90;2.14223563671112E-08;-6.51564449071884E-08;100 nA
-0.19775390625;8.00621497978625;-3.5888671875E-09;-0.197509765625;1;91;2.14223563671112E-08;-6.51564449071884E-08;100 nA
-0.2001953125;8.03062897972461;-3.265380859375E-09;-0.19989013671875;1;92;2.14223563671112E-08;-6.51564449071884E-08;100 nA
-0.20263671875;8.05504297966297;-3.466796875E-09;-0.202423095703125;1;93;2.14223563671112E-08;-6.51564449071884E-08;100 nA
-0.205078125;8.07945697960133;-3.55224609375E-09;-0.20477294921875;1;94;2.14223563671112E-08;-6.51564449071884E-08;100 nA
-0.20751953125;8.10387097953969;-3.594970703125E-09;-0.20721435546875;1;95;2.14223563671112E-08;-6.51564449071884E-08;100 nA
-0.2099609375;8.12828497947805;-3.948974609375E-09;-0.209686279296875;1;96;2.14223563671112E-08;-6.51564449071884E-08;100 nA
-0.21240234375;8.15269897941641;-4.08935546875E-09;-0.212127685546875;1;97;2.14223563671112E-08;-6.51564449071884E-08;100 nA
-0.21484375;8.17711297935477;-3.9581298828125E-09;-0.214599609375;1;98;2.14223563671112E-08;-6.51564449071884E-08;100 nA
-0.21728515625;8.20152697929313;-4.04052734375E-09;-0.217041015625;1;99;2.14223563671112E-08;-6.51564449071884E-08;100 nA
-0.2197265625;8.2259409792315;-4.23583984375E-09;-0.2193603515625;1;100;2.14223563671112E-08;-6.51564449071884E-08;100 nA
-0.22216796875;8.25035497916986;-4.296875E-09;-0.221893310546875;1;101;2.14223563671112E-08;-6.51564449071884E-08;100 nA
-0.224609375;8.27476897910822;-5.01708984375E-09;-0.224334716796875;1;102;2.14223563671112E-08;-6.51564449071884E-08;100 nA
-0.22705078125;8.29918297904658;-4.6173095703125E-09;-0.226776123046875;1;103;2.14223563671112E-08;-6.51564449071884E-08;100 nA
-0.2294921875;8.32359697898494;-5.23681640625E-09;-0.229217529296875;1;104;2.14223563671112E-08;-6.51564449071884E-08;100 nA
-0.23193359375;8.3480109789233;-5.2154541015625E-09;-0.231658935546875;1;105;2.14223563671112E-08;-6.51564449071884E-08;100 nA
-0.234375;8.37242497886166;-5.859375E-09;-0.23406982421875;1;106;2.14223563671112E-08;-6.51564449071884E-08;100 nA
-0.23681640625;8.39683897880002;-5.9600830078125E-09;-0.236480712890625;1;107;2.14223563671112E-08;-6.51564449071884E-08;100 nA
-0.2392578125;8.42125297873838;-6.7596435546875E-09;-0.23895263671875;1;108;2.14223563671112E-08;-6.51564449071884E-08;100 nA
-0.24169921875;8.44566697867674;-6.8389892578125E-09;-0.24139404296875;1;109;2.14223563671112E-08;-6.51564449071884E-08;100 nA
-0.244140625;8.4700809786151;-7.421875E-09;-0.243865966796875;1;110;2.14223563671112E-08;-6.51564449071884E-08;100 nA
-0.24658203125;8.49449497855346;-8.282470703125E-09;-0.246246337890625;1;111;2.14223563671112E-08;-6.51564449071884E-08;100 nA
-0.2490234375;8.51890897849182;-8.53271484375E-09;-0.2486572265625;1;112;2.14223563671112E-08;-6.51564449071884E-08;100 nA
-0.25146484375;8.54332297843018;-9.26513671875E-09;-0.251129150390625;1;113;2.14223563671112E-08;-6.51564449071884E-08;100 nA
-0.25390625;8.56773697836854;-9.92431640625E-09;-0.253509521484375;1;114;2.14223563671112E-08;-6.51564449071884E-08;100 nA
-0.25634765625;8.5921509783069;-1.141357421875E-08;-0.256072998046875;1;115;2.14223563671112E-08;-6.51564449071884E-08;100 nA
-0.2587890625;8.61656497824526;-1.18682861328125E-08;-0.258453369140625;1;116;2.14223563671112E-08;-6.51564449071884E-08;100 nA
-0.26123046875;8.64097897818363;-1.37908935546875E-08;-0.260894775390625;1;117;2.14223563671112E-08;-6.51564449071884E-08;100 nA
-0.263671875;8.66539297812199;-1.46484375E-08;-0.263336181640625;1;118;2.14223563671112E-08;-6.51564449071884E-08;100 nA
-0.26611328125;8.68980697806035;-1.6436767578125E-08;-0.2657470703125;1;119;2.14223563671112E-08;-6.51564449071884E-08;100 nA
-0.2685546875;8.71422097799871;-1.74163818359375E-08;-0.268157958984375;1;120;2.14223563671112E-08;-6.51564449071884E-08;100 nA
-0.27099609375;8.73863497793707;-2.00408935546875E-08;-0.270660400390625;1;121;2.14223563671112E-08;-6.51564449071884E-08;100 nA
-0.2734375;8.76304897787543;-2.1295166015625E-08;-0.2730712890625;1;122;2.14223563671112E-08;-6.51564449071884E-08;100 nA
-0.27587890625;8.78746297781379;-2.39501953125E-08;-0.2755126953125;1;123;2.14223563671112E-08;-6.51564449071884E-08;100 nA
-0.2783203125;8.81187697775215;-2.60894775390625E-08;-0.277984619140625;1;124;2.14223563671112E-08;-6.51564449071884E-08;100 nA
-0.28076171875;8.83629097769051;-2.8118896484375E-08;-0.280426025390625;1;125;2.14223563671112E-08;-6.51564449071884E-08;100 nA
-0.283203125;8.86070497762887;-3.0609130859375E-08;-0.282867431640625;1;126;2.14223563671112E-08;-6.51564449071884E-08;100 nA
-0.28564453125;8.88511897756723;-3.232421875E-08;-0.285247802734375;1;127;2.14223563671112E-08;-6.51564449071884E-08;100 nA
-0.2880859375;8.90953297750559;-3.48663330078125E-08;-0.287689208984375;1;128;2.14223563671112E-08;-6.51564449071884E-08;100 nA
-0.29052734375;8.93394697744395;-3.64715576171875E-08;-0.290130615234375;1;129;2.14223563671112E-08;-6.51564449071884E-08;100 nA
-0.29296875;8.95836097738231;-3.8665771484375E-08;-0.292572021484375;1;130;2.14223563671112E-08;-6.51564449071884E-08;100 nA
-0.29541015625;8.98277497732067;-3.955078125E-08;-0.2950439453125;1;131;2.14223563671112E-08;-6.51564449071884E-08;100 nA
-0.2978515625;9.00718897725903;-4.1015625E-08;-0.297454833984375;1;132;2.14223563671112E-08;-6.51564449071884E-08;100 nA
-0.30029296875;9.03160297719739;-4.1412353515625E-08;-0.29986572265625;1;133;2.14223563671112E-08;-6.51564449071884E-08;100 nA
-0.302734375;9.05601697713576;-4.1656494140625E-08;-0.30230712890625;1;134;2.14223563671112E-08;-6.51564449071884E-08;100 nA
-0.30517578125;9.08043097707412;-4.1015625E-08;-0.304779052734375;1;135;2.14223563671112E-08;-6.51564449071884E-08;100 nA
-0.3076171875;9.10484497701248;-4.0771484375E-08;-0.30718994140625;1;136;2.14223563671112E-08;-6.51564449071884E-08;100 nA
-0.31005859375;9.12925897695084;-3.948974609375E-08;-0.3096923828125;1;137;2.14223563671112E-08;-6.51564449071884E-08;100 nA
-0.3125;9.1536729768892;-3.86962890625E-08;-0.3121337890625;1;138;2.14223563671112E-08;-6.51564449071884E-08;100 nA
-0.31494140625;9.17808697682756;-3.72314453125E-08;-0.314544677734375;1;139;2.14223563671112E-08;-6.51564449071884E-08;100 nA
-0.3173828125;9.20250097676592;-3.514404296875E-08;-0.3170166015625;1;140;2.14223563671112E-08;-6.51564449071884E-08;100 nA
-0.31982421875;9.22691497670428;-3.330078125E-08;-0.3194580078125;1;141;2.14223563671112E-08;-6.51564449071884E-08;100 nA
-0.322265625;9.25132897664264;-3.1268310546875E-08;-0.32183837890625;1;142;2.14223563671112E-08;-6.51564449071884E-08;100 nA
-0.32470703125;9.275742976581;-2.92633056640625E-08;-0.32427978515625;1;143;2.14223563671112E-08;-6.51564449071884E-08;100 nA
-0.3271484375;9.30015697651936;-2.75360107421875E-08;-0.326751708984375;1;144;2.14223563671112E-08;-6.51564449071884E-08;100 nA
-0.32958984375;9.32457097645772;-2.57843017578125E-08;-0.329193115234375;1;145;2.14223563671112E-08;-6.51564449071884E-08;100 nA
-0.33203125;9.34898497639608;-2.386474609375E-08;-0.331634521484375;1;146;2.14223563671112E-08;-6.51564449071884E-08;100 nA
-0.33447265625;9.37339897633444;-2.286376953125E-08;-0.3341064453125;1;147;2.14223563671112E-08;-6.51564449071884E-08;100 nA
-0.3369140625;9.3978129762728;-2.14202880859375E-08;-0.33648681640625;1;148;2.14223563671112E-08;-6.51564449071884E-08;100 nA
-0.33935546875;9.42222697621116;-2.02972412109375E-08;-0.33892822265625;1;149;2.14223563671112E-08;-6.51564449071884E-08;100 nA
-0.341796875;9.44664097614952;-1.90582275390625E-08;-0.341400146484375;1;150;2.14223563671112E-08;-6.51564449071884E-08;100 nA
-0.34423828125;9.47105497608788;-1.88751220703125E-08;-0.343841552734375;1;151;2.14223563671112E-08;-6.51564449071884E-08;100 nA
-0.3466796875;9.49546897602625;-1.80816650390625E-08;-0.3463134765625;1;152;2.14223563671112E-08;-6.51564449071884E-08;100 nA
-0.34912109375;9.51988297596461;-1.75506591796875E-08;-0.34869384765625;1;153;2.14223563671112E-08;-6.51564449071884E-08;100 nA
-0.3515625;9.54429697590297;-1.7156982421875E-08;-0.35113525390625;1;154;2.14223563671112E-08;-6.51564449071884E-08;100 nA
-0.35400390625;9.56871097584133;-1.67633056640625E-08;-0.353607177734375;1;155;2.14223563671112E-08;-6.51564449071884E-08;100 nA
-0.3564453125;9.59312497577969;-1.70135498046875E-08;-0.35601806640625;1;156;2.14223563671112E-08;-6.51564449071884E-08;100 nA
-0.35888671875;9.61753897571805;-1.63787841796875E-08;-0.35845947265625;1;157;2.14223563671112E-08;-6.51564449071884E-08;100 nA
-0.361328125;9.64195297565641;-1.658935546875E-08;-0.36090087890625;1;158;2.14223563671112E-08;-6.51564449071884E-08;100 nA
-0.36376953125;9.66636697559477;-1.59332275390625E-08;-0.36334228515625;1;159;2.14223563671112E-08;-6.51564449071884E-08;100 nA
-0.3662109375;9.69078097553313;-1.627197265625E-08;-0.365814208984375;1;160;2.14223563671112E-08;-6.51564449071884E-08;100 nA
-0.36865234375;9.71519497547149;-1.58294677734375E-08;-0.368255615234375;1;161;2.14223563671112E-08;-6.51564449071884E-08;100 nA
-0.37109375;9.73960897540985;-1.6259765625E-08;-0.37066650390625;1;162;2.14223563671112E-08;-6.51564449071884E-08;100 nA
-0.37353515625;9.76402297534821;-1.59698486328125E-08;-0.373138427734375;1;163;2.14223563671112E-08;-6.51564449071884E-08;100 nA
-0.3759765625;9.78843697528657;-1.60797119140625E-08;-0.375518798828125;1;164;2.14223563671112E-08;-6.51564449071884E-08;100 nA
-0.37841796875;9.81285097522493;-1.5875244140625E-08;-0.37799072265625;1;165;2.14223563671112E-08;-6.51564449071884E-08;100 nA
-0.380859375;9.83726497516329;-1.6412353515625E-08;-0.38043212890625;1;166;2.14223563671112E-08;-6.51564449071884E-08;100 nA
-0.38330078125;9.86167897510165;-1.66656494140625E-08;-0.382843017578125;1;167;2.14223563671112E-08;-6.51564449071884E-08;100 nA
-0.3857421875;9.88609297504001;-1.64306640625E-08;-0.385406494140625;1;168;2.14223563671112E-08;-6.51564449071884E-08;100 nA
-0.38818359375;9.91050697497838;-1.62933349609375E-08;-0.3878173828125;1;169;2.14223563671112E-08;-6.51564449071884E-08;100 nA
-0.390625;9.93492097491674;-1.636962890625E-08;-0.390167236328125;1;170;2.14223563671112E-08;-6.51564449071884E-08;100 nA
-0.39306640625;9.9593349748551;-1.68304443359375E-08;-0.392608642578125;1;171;2.14223563671112E-08;-6.51564449071884E-08;100 nA
-0.3955078125;9.98374897479346;-1.67510986328125E-08;-0.395111083984375;1;172;2.14223563671112E-08;-6.51564449071884E-08;100 nA
-0.39794921875;10.0081629747318;-1.69525146484375E-08;-0.397552490234375;1;173;2.14223563671112E-08;-6.51564449071884E-08;100 nA
-0.400390625;10.0325769746702;-1.680908203125E-08;-0.399932861328125;1;174;2.14223563671112E-08;-6.51564449071884E-08;100 nA
-0.40283203125;10.0569909746085;-1.751708984375E-08;-0.402435302734375;1;175;2.14223563671112E-08;-6.51564449071884E-08;100 nA
-0.4052734375;10.0814049745469;-1.70745849609375E-08;-0.404815673828125;1;176;2.14223563671112E-08;-6.51564449071884E-08;100 nA
-0.40771484375;10.1058189744853;-1.72821044921875E-08;-0.4072265625;1;177;2.14223563671112E-08;-6.51564449071884E-08;100 nA
-0.41015625;10.1302329744236;-1.727294921875E-08;-0.40966796875;1;178;2.14223563671112E-08;-6.51564449071884E-08;100 nA
-0.41259765625;10.154646974362;-1.80328369140625E-08;-0.412139892578125;1;179;2.14223563671112E-08;-6.51564449071884E-08;100 nA
-0.4150390625;10.1790609743003;-1.76788330078125E-08;-0.414520263671875;1;180;2.14223563671112E-08;-6.51564449071884E-08;100 nA
-0.41748046875;10.2034749742387;-1.79229736328125E-08;-0.4169921875;1;181;2.14223563671112E-08;-6.51564449071884E-08;100 nA
-0.419921875;10.2278889741771;-1.81060791015625E-08;-0.419464111328125;1;182;2.14223563671112E-08;-6.51564449071884E-08;100 nA
-0.42236328125;10.2523029741154;-1.8402099609375E-08;-0.421875;1;183;2.14223563671112E-08;-6.51564449071884E-08;100 nA
-0.4248046875;10.2767169740538;-1.84326171875E-08;-0.424346923828125;1;184;2.14223563671112E-08;-6.51564449071884E-08;100 nA
-0.42724609375;10.3011309739921;-1.86859130859375E-08;-0.426788330078125;1;185;2.14223563671112E-08;-6.51564449071884E-08;100 nA
-0.4296875;10.3255449739305;-1.8927001953125E-08;-0.429229736328125;1;186;2.14223563671112E-08;-6.51564449071884E-08;100 nA
-0.43212890625;10.3499589738689;-1.883544921875E-08;-0.431671142578125;1;187;2.14223563671112E-08;-6.51564449071884E-08;100 nA
-0.4345703125;10.3743729738072;-1.94671630859375E-08;-0.434173583984375;1;188;2.14223563671112E-08;-6.51564449071884E-08;100 nA
-0.43701171875;10.3987869737456;-1.92901611328125E-08;-0.436553955078125;1;189;2.14223563671112E-08;-6.51564449071884E-08;100 nA
-0.439453125;10.4232009736839;-1.97113037109375E-08;-0.438995361328125;1;190;2.14223563671112E-08;-6.51564449071884E-08;100 nA
-0.44189453125;10.4476149736223;-1.95098876953125E-08;-0.441497802734375;1;191;2.14223563671112E-08;-6.51564449071884E-08;100 nA
-0.4443359375;10.4720289735607;-2.0111083984375E-08;-0.443878173828125;1;192;2.14223563671112E-08;-6.51564449071884E-08;100 nA
-0.44677734375;10.496442973499;-1.993408203125E-08;-0.446258544921875;1;193;2.14223563671112E-08;-6.51564449071884E-08;100 nA
-0.44921875;10.5208569734374;-2.032470703125E-08;-0.44873046875;1;194;2.14223563671112E-08;-6.51564449071884E-08;100 nA
-0.45166015625;10.5452709733758;-2.07611083984375E-08;-0.45123291015625;1;195;2.14223563671112E-08;-6.51564449071884E-08;100 nA
-0.44921875;10.5696849733141;-1.99005126953125E-08;-0.448760986328125;1;196;2.14223563671112E-08;-6.51564449071884E-08;100 nA
-0.44677734375;10.5940989732525;-1.9097900390625E-08;-0.44635009765625;1;197;2.14223563671112E-08;-6.51564449071884E-08;100 nA
-0.4443359375;10.6185129731908;-1.8511962890625E-08;-0.44384765625;1;198;2.14223563671112E-08;-6.51564449071884E-08;100 nA
-0.44189453125;10.6429269731292;-1.78955078125E-08;-0.441436767578125;1;199;2.14223563671112E-08;-6.51564449071884E-08;100 nA
-0.439453125;10.6673409730676;-1.7218017578125E-08;-0.438995361328125;1;200;2.14223563671112E-08;-6.51564449071884E-08;100 nA
-0.43701171875;10.6917549730059;-1.71234130859375E-08;-0.436492919921875;1;201;2.14223563671112E-08;-6.51564449071884E-08;100 nA
-0.4345703125;10.7161689729443;-1.63848876953125E-08;-0.43414306640625;1;202;2.14223563671112E-08;-6.51564449071884E-08;100 nA
-0.43212890625;10.7405829728826;-1.6131591796875E-08;-0.431732177734375;1;203;2.14223563671112E-08;-6.51564449071884E-08;100 nA
-0.4296875;10.764996972821;-1.5625E-08;-0.429107666015625;1;204;2.14223563671112E-08;-6.51564449071884E-08;100 nA
-0.42724609375;10.7894109727594;-1.5228271484375E-08;-0.426788330078125;1;205;2.14223563671112E-08;-6.51564449071884E-08;100 nA
-0.4248046875;10.8138249726977;-1.47674560546875E-08;-0.424346923828125;1;206;2.14223563671112E-08;-6.51564449071884E-08;100 nA
-0.42236328125;10.8382389726361;-1.46270751953125E-08;-0.421905517578125;1;207;2.14223563671112E-08;-6.51564449071884E-08;100 nA
-0.419921875;10.8626529725744;-1.40625E-08;-0.419464111328125;1;208;2.14223563671112E-08;-6.51564449071884E-08;100 nA
-0.41748046875;10.8870669725128;-1.40533447265625E-08;-0.4169921875;1;209;2.14223563671112E-08;-6.51564449071884E-08;100 nA
-0.4150390625;10.9114809724512;-1.35009765625E-08;-0.41455078125;1;210;2.14223563671112E-08;-6.51564449071884E-08;100 nA
-0.41259765625;10.9358949723895;-1.3189697265625E-08;-0.41217041015625;1;211;2.14223563671112E-08;-6.51564449071884E-08;100 nA
-0.41015625;10.9603089723279;-1.32720947265625E-08;-0.40966796875;1;212;2.14223563671112E-08;-6.51564449071884E-08;100 nA
-0.40771484375;10.9847229722662;-1.2567138671875E-08;-0.40728759765625;1;213;2.14223563671112E-08;-6.51564449071884E-08;100 nA
-0.4052734375;11.0091369722046;-1.25701904296875E-08;-0.40484619140625;1;214;2.14223563671112E-08;-6.51564449071884E-08;100 nA
-0.40283203125;11.033550972143;-1.2060546875E-08;-0.4024658203125;1;215;2.14223563671112E-08;-6.51564449071884E-08;100 nA
-0.400390625;11.0579649720813;-1.21917724609375E-08;-0.39996337890625;1;216;2.14223563671112E-08;-6.51564449071884E-08;100 nA
-0.39794921875;11.0823789720197;-1.1126708984375E-08;-0.397491455078125;1;217;2.14223563671112E-08;-6.51564449071884E-08;100 nA
-0.3955078125;11.106792971958;-1.1407470703125E-08;-0.39508056640625;1;218;2.14223563671112E-08;-6.51564449071884E-08;100 nA
-0.39306640625;11.1312069718964;-1.102294921875E-08;-0.392669677734375;1;219;2.14223563671112E-08;-6.51564449071884E-08;100 nA
-0.390625;11.1556209718348;-1.0833740234375E-08;-0.39019775390625;1;220;2.14223563671112E-08;-6.51564449071884E-08;100 nA
-0.38818359375;11.1800349717731;-1.02630615234375E-08;-0.387786865234375;1;221;2.14223563671112E-08;-6.51564449071884E-08;100 nA
-0.3857421875;11.2044489717115;-1.04736328125E-08;-0.385284423828125;1;222;2.14223563671112E-08;-6.51564449071884E-08;100 nA
-0.38330078125;11.2288629716498;-9.5977783203125E-09;-0.382904052734375;1;223;2.14223563671112E-08;-6.51564449071884E-08;100 nA
-0.380859375;11.2532769715882;-9.7564697265625E-09;-0.380462646484375;1;224;2.14223563671112E-08;-6.51564449071884E-08;100 nA
-0.37841796875;11.2776909715266;-9.5794677734375E-09;-0.378021240234375;1;225;2.14223563671112E-08;-6.51564449071884E-08;100 nA
-0.3759765625;11.3021049714649;-9.014892578125E-09;-0.375579833984375;1;226;2.14223563671112E-08;-6.51564449071884E-08;100 nA
-0.37353515625;11.3265189714033;-8.770751953125E-09;-0.37310791015625;1;227;2.14223563671112E-08;-6.51564449071884E-08;100 nA
-0.37109375;11.3509329713416;-8.55712890625E-09;-0.3707275390625;1;228;2.14223563671112E-08;-6.51564449071884E-08;100 nA
-0.36865234375;11.37534697128;-8.197021484375E-09;-0.3682861328125;1;229;2.14223563671112E-08;-6.51564449071884E-08;100 nA
-0.3662109375;11.3997609712184;-7.7301025390625E-09;-0.3658447265625;1;230;2.14223563671112E-08;-6.51564449071884E-08;100 nA
-0.36376953125;11.4241749711567;-7.8033447265625E-09;-0.3634033203125;1;231;2.14223563671112E-08;-6.51564449071884E-08;100 nA
-0.361328125;11.4485889710951;-6.964111328125E-09;-0.360931396484375;1;232;2.14223563671112E-08;-6.51564449071884E-08;100 nA
-0.35888671875;11.4730029710335;-7.1929931640625E-09;-0.358551025390625;1;233;2.14223563671112E-08;-6.51564449071884E-08;100 nA
-0.3564453125;11.4974169709718;-6.1920166015625E-09;-0.356048583984375;1;234;2.14223563671112E-08;-6.51564449071884E-08;100 nA
-0.35400390625;11.5218309709102;-6.18896484375E-09;-0.3536376953125;1;235;2.14223563671112E-08;-6.51564449071884E-08;100 nA
-0.3515625;11.5462449708485;-5.3070068359375E-09;-0.351226806640625;1;236;2.14223563671112E-08;-6.51564449071884E-08;100 nA
-0.34912109375;11.5706589707869;-4.8553466796875E-09;-0.3487548828125;1;237;2.14223563671112E-08;-6.51564449071884E-08;100 nA
-0.3466796875;11.5950729707253;-4.071044921875E-09;-0.3463134765625;1;238;2.14223563671112E-08;-6.51564449071884E-08;100 nA
-0.34423828125;11.6194869706636;-3.1463623046875E-09;-0.34381103515625;1;239;2.14223563671112E-08;-6.51564449071884E-08;100 nA
-0.341796875;11.643900970602;-2.64892578125E-09;-0.341400146484375;1;240;2.14223563671112E-08;-6.51564449071884E-08;100 nA
-0.33935546875;11.6683149705403;-1.7852783203125E-09;-0.3389892578125;1;241;2.14223563671112E-08;-6.51564449071884E-08;100 nA
-0.3369140625;11.6927289704787;-6.378173828125E-10;-0.3365478515625;1;242;2.14223563671112E-08;-6.51564449071884E-08;100 nA
-0.33447265625;11.7171429704171;6.53076171875E-10;-0.3341064453125;1;243;2.14223563671112E-08;-6.51564449071884E-08;100 nA
-0.33203125;11.7415569703554;1.4923095703125E-09;-0.3316650390625;1;244;2.14223563671112E-08;-6.51564449071884E-08;100 nA
-0.32958984375;11.7659709702938;3.7994384765625E-09;-0.3292236328125;1;245;2.14223563671112E-08;-6.51564449071884E-08;100 nA
-0.3271484375;11.7903849702321;4.94384765625E-09;-0.32684326171875;1;246;2.14223563671112E-08;-6.51564449071884E-08;100 nA
-0.32470703125;11.8147989701705;7.12890625E-09;-0.3243408203125;1;247;2.14223563671112E-08;-6.51564449071884E-08;100 nA
-0.322265625;11.8392129701089;8.648681640625E-09;-0.32196044921875;1;248;2.14223563671112E-08;-6.51564449071884E-08;100 nA
-0.31982421875;11.8636269700472;1.12945556640625E-08;-0.319488525390625;1;249;2.14223563671112E-08;-6.51564449071884E-08;100 nA
-0.3173828125;11.8880409699856;1.334228515625E-08;-0.317047119140625;1;250;2.14223563671112E-08;-6.51564449071884E-08;100 nA
-0.31494140625;11.9124549699239;1.571044921875E-08;-0.3145751953125;1;251;2.14223563671112E-08;-6.51564449071884E-08;100 nA
-0.3125;11.9368689698623;1.8145751953125E-08;-0.3121337890625;1;252;2.14223563671112E-08;-6.51564449071884E-08;100 nA
-0.31005859375;11.9612829698007;2.03765869140625E-08;-0.30975341796875;1;253;2.14223563671112E-08;-6.51564449071884E-08;100 nA
-0.3076171875;11.985696969739;2.2540283203125E-08;-0.30731201171875;1;254;2.14223563671112E-08;-6.51564449071884E-08;100 nA
-0.30517578125;12.0101109696774;2.4468994140625E-08;-0.304840087890625;1;255;2.14223563671112E-08;-6.51564449071884E-08;100 nA
-0.302734375;12.0345249696157;2.62359619140625E-08;-0.30242919921875;1;256;2.14223563671112E-08;-6.51564449071884E-08;100 nA
-0.30029296875;12.0589389695541;2.7703857421875E-08;-0.300018310546875;1;257;2.14223563671112E-08;-6.51564449071884E-08;100 nA
-0.2978515625;12.0833529694925;2.88787841796875E-08;-0.29754638671875;1;258;2.14223563671112E-08;-6.51564449071884E-08;100 nA
-0.29541015625;12.1077669694308;2.9754638671875E-08;-0.295074462890625;1;259;2.14223563671112E-08;-6.51564449071884E-08;100 nA
-0.29296875;12.1321809693692;2.9864501953125E-08;-0.292724609375;1;260;2.14223563671112E-08;-6.51564449071884E-08;100 nA
-0.29052734375;12.1565949693075;2.9656982421875E-08;-0.290252685546875;1;261;2.14223563671112E-08;-6.51564449071884E-08;100 nA
-0.2880859375;12.1810089692459;2.95013427734375E-08;-0.287841796875;1;262;2.14223563671112E-08;-6.51564449071884E-08;100 nA
-0.28564453125;12.2054229691843;2.84515380859375E-08;-0.285400390625;1;263;2.14223563671112E-08;-6.51564449071884E-08;100 nA
-0.283203125;12.2298369691226;2.7630615234375E-08;-0.282958984375;1;264;2.14223563671112E-08;-6.51564449071884E-08;100 nA
-0.28076171875;12.254250969061;2.59124755859375E-08;-0.280517578125;1;265;2.14223563671112E-08;-6.51564449071884E-08;100 nA
-0.2783203125;12.2786649689994;2.45269775390625E-08;-0.278045654296875;1;266;2.14223563671112E-08;-6.51564449071884E-08;100 nA
-0.27587890625;12.3030789689377;2.330322265625E-08;-0.275604248046875;1;267;2.14223563671112E-08;-6.51564449071884E-08;100 nA
-0.2734375;12.3274929688761;2.1539306640625E-08;-0.27313232421875;1;268;2.14223563671112E-08;-6.51564449071884E-08;100 nA
-0.27099609375;12.3519069688144;1.9464111328125E-08;-0.270721435546875;1;269;2.14223563671112E-08;-6.51564449071884E-08;100 nA
-0.2685546875;12.3763209687528;1.817626953125E-08;-0.268218994140625;1;270;2.14223563671112E-08;-6.51564449071884E-08;100 nA
-0.26611328125;12.4007349686912;1.683349609375E-08;-0.26580810546875;1;271;2.14223563671112E-08;-6.51564449071884E-08;100 nA
-0.263671875;12.4251489686295;1.50299072265625E-08;-0.263336181640625;1;272;2.14223563671112E-08;-6.51564449071884E-08;100 nA
-0.26123046875;12.4495629685679;1.376953125E-08;-0.26092529296875;1;273;2.14223563671112E-08;-6.51564449071884E-08;100 nA
-0.2587890625;12.4739769685062;1.2200927734375E-08;-0.258514404296875;1;274;2.14223563671112E-08;-6.51564449071884E-08;100 nA
-0.25634765625;12.4983909684446;1.16363525390625E-08;-0.256072998046875;1;275;2.14223563671112E-08;-6.51564449071884E-08;100 nA
-0.25390625;12.522804968383;9.9090576171875E-09;-0.253570556640625;1;276;2.14223563671112E-08;-6.51564449071884E-08;100 nA
-0.25146484375;12.5472189683213;9.4390869140625E-09;-0.25115966796875;1;277;2.14223563671112E-08;-6.51564449071884E-08;100 nA
-0.2490234375;12.5716329682597;8.5113525390625E-09;-0.24871826171875;1;278;2.14223563671112E-08;-6.51564449071884E-08;100 nA
-0.24658203125;12.596046968198;8.0841064453125E-09;-0.24627685546875;1;279;2.14223563671112E-08;-6.51564449071884E-08;100 nA
-0.244140625;12.6204609681364;6.7352294921875E-09;-0.243865966796875;1;280;2.14223563671112E-08;-6.51564449071884E-08;100 nA
-0.24169921875;12.6448749680748;6.6009521484375E-09;-0.241363525390625;1;281;2.14223563671112E-08;-6.51564449071884E-08;100 nA
-0.2392578125;12.6692889680131;6.0699462890625E-09;-0.23895263671875;1;282;2.14223563671112E-08;-6.51564449071884E-08;100 nA
-0.23681640625;12.6937029679515;5.255126953125E-09;-0.236572265625;1;283;2.14223563671112E-08;-6.51564449071884E-08;100 nA
-0.234375;12.7181169678898;5.4718017578125E-09;-0.23406982421875;1;284;2.14223563671112E-08;-6.51564449071884E-08;100 nA
-0.23193359375;12.7425309678282;4.541015625E-09;-0.231689453125;1;285;2.14223563671112E-08;-6.51564449071884E-08;100 nA
-0.2294921875;12.7669449677666;4.6844482421875E-09;-0.229156494140625;1;286;2.14223563671112E-08;-6.51564449071884E-08;100 nA
-0.22705078125;12.7913589677049;3.826904296875E-09;-0.226776123046875;1;287;2.14223563671112E-08;-6.51564449071884E-08;100 nA
-0.224609375;12.8157729676433;3.8665771484375E-09;-0.22430419921875;1;288;2.14223563671112E-08;-6.51564449071884E-08;100 nA
-0.22216796875;12.8401869675816;3.668212890625E-09;-0.221893310546875;1;289;2.14223563671112E-08;-6.51564449071884E-08;100 nA
-0.2197265625;12.86460096752;3.5400390625E-09;-0.21942138671875;1;290;2.14223563671112E-08;-6.51564449071884E-08;100 nA
-0.21728515625;12.8890149674584;2.996826171875E-09;-0.21697998046875;1;291;2.14223563671112E-08;-6.51564449071884E-08;100 nA
-0.21484375;12.9134289673967;3.2440185546875E-09;-0.214599609375;1;292;2.14223563671112E-08;-6.51564449071884E-08;100 nA
-0.21240234375;12.9378429673351;2.838134765625E-09;-0.21209716796875;1;293;2.14223563671112E-08;-6.51564449071884E-08;100 nA
-0.2099609375;12.9622569672734;2.789306640625E-09;-0.209686279296875;1;294;2.14223563671112E-08;-6.51564449071884E-08;100 nA
-0.20751953125;12.9866709672118;2.2705078125E-09;-0.207275390625;1;295;2.14223563671112E-08;-6.51564449071884E-08;100 nA
-0.205078125;13.0110849671502;2.5726318359375E-09;-0.204803466796875;1;296;2.14223563671112E-08;-6.51564449071884E-08;100 nA
-0.20263671875;13.0354989670885;2.3162841796875E-09;-0.202362060546875;1;297;2.14223563671112E-08;-6.51564449071884E-08;100 nA
-0.2001953125;13.0599129670269;2.2125244140625E-09;-0.199951171875;1;298;2.14223563671112E-08;-6.51564449071884E-08;100 nA
-0.19775390625;13.0843269669652;2.3101806640625E-09;-0.197509765625;1;299;2.14223563671112E-08;-6.51564449071884E-08;100 nA
-0.1953125;13.1087409669036;1.9775390625E-09;-0.195068359375;1;300;2.14223563671112E-08;-6.51564449071884E-08;100 nA
-0.19287109375;13.133154966842;2.06298828125E-09;-0.192626953125;1;301;2.14223563671112E-08;-6.51564449071884E-08;100 nA
-0.1904296875;13.1575689667803;1.861572265625E-09;-0.190155029296875;1;302;2.14223563671112E-08;-6.51564449071884E-08;100 nA
-0.18798828125;13.1819829667187;2.264404296875E-09;-0.187744140625;1;303;2.14223563671112E-08;-6.51564449071884E-08;100 nA
-0.185546875;13.2063969666571;2.0538330078125E-09;-0.185272216796875;1;304;2.14223563671112E-08;-6.51564449071884E-08;100 nA
-0.18310546875;13.2308109665954;2.093505859375E-09;-0.182830810546875;1;305;2.14223563671112E-08;-6.51564449071884E-08;100 nA
-0.1806640625;13.2552249665338;1.739501953125E-09;-0.18035888671875;1;306;2.14223563671112E-08;-6.51564449071884E-08;100 nA
-0.17822265625;13.2796389664721;2.1881103515625E-09;-0.177978515625;1;307;2.14223563671112E-08;-6.51564449071884E-08;100 nA
-0.17578125;13.3040529664105;1.800537109375E-09;-0.175506591796875;1;308;2.14223563671112E-08;-6.51564449071884E-08;100 nA
-0.17333984375;13.3284669663489;1.9927978515625E-09;-0.173095703125;1;309;2.14223563671112E-08;-6.51564449071884E-08;100 nA
-0.1708984375;13.3528809662872;1.904296875E-09;-0.170684814453125;1;310;2.14223563671112E-08;-6.51564449071884E-08;100 nA
-0.16845703125;13.3772949662256;1.397705078125E-09;-0.168243408203125;1;311;2.14223563671112E-08;-6.51564449071884E-08;100 nA
-0.166015625;13.4017089661639;1.470947265625E-09;-0.165802001953125;1;312;2.14223563671112E-08;-6.51564449071884E-08;100 nA
-0.16357421875;13.4261229661023;1.5411376953125E-09;-0.163330078125;1;313;2.14223563671112E-08;-6.51564449071884E-08;100 nA
-0.1611328125;13.4505369660407;1.7181396484375E-09;-0.160919189453125;1;314;2.14223563671112E-08;-6.51564449071884E-08;100 nA
-0.15869140625;13.474950965979;1.6754150390625E-09;-0.15850830078125;1;315;2.14223563671112E-08;-6.51564449071884E-08;100 nA
-0.15625;13.4993649659174;1.84326171875E-09;-0.15606689453125;1;316;2.14223563671112E-08;-6.51564449071884E-08;100 nA
-0.15380859375;13.5237789658557;1.824951171875E-09;-0.153564453125;1;317;2.14223563671112E-08;-6.51564449071884E-08;100 nA
-0.1513671875;13.5481929657941;1.7059326171875E-09;-0.15118408203125;1;318;2.14223563671112E-08;-6.51564449071884E-08;100 nA
-0.14892578125;13.5726069657325;1.4251708984375E-09;-0.148712158203125;1;319;2.14223563671112E-08;-6.51564449071884E-08;100 nA
-0.146484375;13.5970209656708;1.763916015625E-09;-0.146240234375;1;320;2.14223563671112E-08;-6.51564449071884E-08;100 nA
-0.14404296875;13.6214349656092;1.690673828125E-09;-0.143829345703125;1;321;2.14223563671112E-08;-6.51564449071884E-08;100 nA
-0.1416015625;13.6458489655475;1.861572265625E-09;-0.141357421875;1;322;2.14223563671112E-08;-6.51564449071884E-08;100 nA
-0.13916015625;13.6702629654859;1.79443359375E-09;-0.138946533203125;1;323;2.14223563671112E-08;-6.51564449071884E-08;100 nA
-0.13671875;13.6946769654243;1.7822265625E-09;-0.136505126953125;1;324;2.14223563671112E-08;-6.51564449071884E-08;100 nA
-0.13427734375;13.7190909653626;1.6082763671875E-09;-0.134063720703125;1;325;2.14223563671112E-08;-6.51564449071884E-08;100 nA
-0.1318359375;13.743504965301;1.7547607421875E-09;-0.131622314453125;1;326;2.14223563671112E-08;-6.51564449071884E-08;100 nA
-0.12939453125;13.7679189652393;1.72119140625E-09;-0.129150390625;1;327;2.14223563671112E-08;-6.51564449071884E-08;100 nA
-0.126953125;13.7923329651777;1.6204833984375E-09;-0.126708984375;1;328;2.14223563671112E-08;-6.51564449071884E-08;100 nA
-0.12451171875;13.8167469651161;1.5380859375E-09;-0.12432861328125;1;329;2.14223563671112E-08;-6.51564449071884E-08;100 nA
-0.1220703125;13.8411609650544;1.9134521484375E-09;-0.121856689453125;1;330;2.14223563671112E-08;-6.51564449071884E-08;100 nA
-0.11962890625;13.8655749649928;1.7486572265625E-09;-0.119476318359375;1;331;2.14223563671112E-08;-6.51564449071884E-08;100 nA
-0.1171875;13.8899889649311;1.507568359375E-09;-0.117034912109375;1;332;2.14223563671112E-08;-6.51564449071884E-08;100 nA
-0.11474609375;13.9144029648695;2.2491455078125E-09;-0.1146240234375;1;333;2.14223563671112E-08;-6.51564449071884E-08;100 nA
-0.1123046875;13.9388169648079;1.416015625E-09;-0.112152099609375;1;334;2.14223563671112E-08;-6.51564449071884E-08;100 nA
-0.10986328125;13.9632309647462;2.0721435546875E-09;-0.109710693359375;1;335;2.14223563671112E-08;-6.51564449071884E-08;100 nA
-0.107421875;13.9876449646846;1.702880859375E-09;-0.1072998046875;1;336;2.14223563671112E-08;-6.51564449071884E-08;100 nA
-0.10498046875;14.012058964623;2.056884765625E-09;-0.10479736328125;1;337;2.14223563671112E-08;-6.51564449071884E-08;100 nA
-0.1025390625;14.0364729645613;1.611328125E-09;-0.102325439453125;1;338;2.14223563671112E-08;-6.51564449071884E-08;100 nA
-0.10009765625;14.0608869644997;1.7822265625E-09;-0.099884033203125;1;339;2.14223563671112E-08;-6.51564449071884E-08;100 nA
-0.09765625;14.085300964438;1.6815185546875E-09;-0.097442626953125;1;340;2.14223563671112E-08;-6.51564449071884E-08;100 nA
-0.09521484375;14.1097149643764;1.9622802734375E-09;-0.09503173828125;1;341;2.14223563671112E-08;-6.51564449071884E-08;100 nA
-0.0927734375;14.1341289643148;1.9866943359375E-09;-0.092620849609375;1;342;2.14223563671112E-08;-6.51564449071884E-08;100 nA
-0.09033203125;14.1585429642531;1.6082763671875E-09;-0.09014892578125;1;343;2.14223563671112E-08;-6.51564449071884E-08;100 nA
-0.087890625;14.1829569641915;2.099609375E-09;-0.087799072265625;1;344;2.14223563671112E-08;-6.51564449071884E-08;100 nA
-0.08544921875;14.2073709641298;1.531982421875E-09;-0.08526611328125;1;345;2.14223563671112E-08;-6.51564449071884E-08;100 nA
-0.0830078125;14.2317849640682;2.0355224609375E-09;-0.0828857421875;1;346;2.14223563671112E-08;-6.51564449071884E-08;100 nA
-0.08056640625;14.2561989640066;1.5777587890625E-09;-0.080413818359375;1;347;2.14223563671112E-08;-6.51564449071884E-08;100 nA
-0.078125;14.2806129639449;1.9012451171875E-09;-0.0780029296875;1;348;2.14223563671112E-08;-6.51564449071884E-08;100 nA
-0.07568359375;14.3050269638833;1.739501953125E-09;-0.07550048828125;1;349;2.14223563671112E-08;-6.51564449071884E-08;100 nA
-0.0732421875;14.3294409638216;2.16064453125E-09;-0.0731201171875;1;350;2.14223563671112E-08;-6.51564449071884E-08;100 nA
-0.07080078125;14.35385496376;1.6632080078125E-09;-0.070709228515625;1;351;2.14223563671112E-08;-6.51564449071884E-08;100 nA
-0.068359375;14.3782689636984;1.91650390625E-09;-0.06817626953125;1;352;2.14223563671112E-08;-6.51564449071884E-08;100 nA
-0.06591796875;14.4026829636367;1.9378662109375E-09;-0.065765380859375;1;353;2.14223563671112E-08;-6.51564449071884E-08;100 nA
-0.0634765625;14.4270969635751;1.885986328125E-09;-0.0633544921875;1;354;2.14223563671112E-08;-6.51564449071884E-08;100 nA
-0.06103515625;14.4515109635134;1.617431640625E-09;-0.060882568359375;1;355;2.14223563671112E-08;-6.51564449071884E-08;100 nA
-0.05859375;14.4759249634518;1.2725830078125E-09;-0.058502197265625;1;356;2.14223563671112E-08;-6.51564449071884E-08;100 nA
-0.05615234375;14.5003389633902;2.1087646484375E-09;-0.0560302734375;1;357;2.14223563671112E-08;-6.51564449071884E-08;100 nA
-0.0537109375;14.5247529633285;1.8768310546875E-09;-0.053558349609375;1;358;2.14223563671112E-08;-6.51564449071884E-08;100 nA
-0.05126953125;14.5491669632669;1.715087890625E-09;-0.051177978515625;1;359;2.14223563671112E-08;-6.51564449071884E-08;100 nA
-0.048828125;14.5735809632052;1.806640625E-09;-0.04866943359375;1;360;2.14223563671112E-08;-6.51564449071884E-08;100 nA
-0.04638671875;14.5979949631436;2.3468017578125E-09;-0.046234130859375;1;361;2.14223563671112E-08;-6.51564449071884E-08;100 nA
-0.0439453125;14.622408963082;1.776123046875E-09;-0.043804931640625;1;362;2.14223563671112E-08;-6.51564449071884E-08;100 nA
-0.04150390625;14.6468229630203;2.288818359375E-09;-0.041357421875;1;363;2.14223563671112E-08;-6.51564449071884E-08;100 nA
-0.0390625;14.6712369629587;1.678466796875E-09;-0.03890380859375;1;364;2.14223563671112E-08;-6.51564449071884E-08;100 nA
-0.03662109375;14.695650962897;2.1148681640625E-09;-0.0364593505859375;1;365;2.14223563671112E-08;-6.51564449071884E-08;100 nA
-0.0341796875;14.7200649628354;1.739501953125E-09;-0.0340179443359375;1;366;2.14223563671112E-08;-6.51564449071884E-08;100 nA
-0.03173828125;14.7444789627738;1.8524169921875E-09;-0.0315765380859375;1;367;2.14223563671112E-08;-6.51564449071884E-08;100 nA
-0.029296875;14.7688929627121;2.0355224609375E-09;-0.02913818359375;1;368;2.14223563671112E-08;-6.51564449071884E-08;100 nA
-0.02685546875;14.7933069626505;2.2064208984375E-09;-0.026715087890625;1;369;2.14223563671112E-08;-6.51564449071884E-08;100 nA
-0.0244140625;14.8177209625889;2.1026611328125E-09;-0.024261474609375;1;370;2.14223563671112E-08;-6.51564449071884E-08;100 nA
-0.02197265625;14.8421349625272;1.873779296875E-09;-0.021820068359375;1;371;2.14223563671112E-08;-6.51564449071884E-08;100 nA
-0.01953125;14.8665489624656;2.1087646484375E-09;-0.01939697265625;1;372;2.14223563671112E-08;-6.51564449071884E-08;100 nA
-0.01708984375;14.8909629624039;1.8096923828125E-09;-0.016943359375;1;373;2.14223563671112E-08;-6.51564449071884E-08;100 nA
-0.0146484375;14.9153769623423;2.1331787109375E-09;-0.0145111083984375;1;374;2.14223563671112E-08;-6.51564449071884E-08;100 nA
-0.01220703125;14.9397909622807;2.0843505859375E-09;-0.012066650390625;1;375;2.14223563671112E-08;-6.51564449071884E-08;100 nA
-0.009765625;14.964204962219;2.28271484375E-09;-0.0096435546875;1;376;2.14223563671112E-08;-6.51564449071884E-08;100 nA
-0.00732421875;14.9886189621574;1.666259765625E-09;-0.0071868896484375;1;377;2.14223563671112E-08;-6.51564449071884E-08;100 nA
-0.0048828125;15.0130329620957;2.2369384765625E-09;-0.0047637939453125;1;378;2.14223563671112E-08;-6.51564449071884E-08;100 nA
-0.00244140625;15.0374469620341;1.9256591796875E-09;-0.0023162841796875;1;379;2.14223563671112E-08;-6.51564449071884E-08;100 nA
0;15.0618609619725;2.227783203125E-09;0.000100708007812506;1;380;2.14223563671112E-08;-6.51564449071884E-08;100 nA
