Potential applied (V);Time (s);WE(1).Current (A);WE(1).Potential (V);Scan;Index;Q+;Q-;Current range
0.00244140625;5.81595498531613;3.96728515625E-11;0.002581787109375;1;1;1.54593586921692E-08;-4.59912419319153E-08;100 nA
0.0048828125;5.84036898525449;1.0986328125E-10;0.0049774169921875;1;2;1.54593586921692E-08;-4.59912419319153E-08;100 nA
0.00732421875;5.86478298519285;7.354736328125E-10;0.0074462890625;1;3;1.54593586921692E-08;-4.59912419319153E-08;100 nA
0.009765625;5.88919698513121;2.105712890625E-10;0.009869384765625;1;4;1.54593586921692E-08;-4.59912419319153E-08;100 nA
0.01220703125;5.91361098506957;5.950927734375E-10;0.0123382568359375;1;5;1.54593586921692E-08;-4.59912419319153E-08;100 nA
0.009765625;5.93802498500793;1.3427734375E-10;0.00988159179687501;1;6;1.54593586921692E-08;-4.59912419319153E-08;100 nA
0.00732421875;5.96243898494629;-3.96728515625E-10;0.007464599609375;1;7;1.54593586921692E-08;-4.59912419319153E-08;100 nA
0.0048828125;5.98685298488465;-4.180908203125E-10;0.0050048828125;1;8;1.54593586921692E-08;-4.59912419319153E-08;100 nA
0.00244140625;6.01126698482301;-2.3193359375E-10;0.00254211425781251;1;9;1.54593586921692E-08;-4.59912419319153E-08;100 nA
0;6.03568098476137;-6.89697265625E-10;0.000112915039062494;1;10;1.54593586921692E-08;-4.59912419319153E-08;100 nA
-0.00244140625;6.06009498469973;-6.744384765625E-10;-0.00234069824218749;1;11;1.54593586921692E-08;-4.59912419319153E-08;100 nA
-0.0048828125;6.08450898463809;-9.246826171875E-10;-0.0047454833984375;1;12;1.54593586921692E-08;-4.59912419319153E-08;100 nA
-0.00732421875;6.10892298457645;-8.331298828125E-10;-0.00719299316406249;1;13;1.54593586921692E-08;-4.59912419319153E-08;100 nA
-0.009765625;6.13333698451481;-9.82666015625E-10;-0.0096160888671875;1;14;1.54593586921692E-08;-4.59912419319153E-08;100 nA
-0.01220703125;6.15775098445317;-1.0284423828125E-09;-0.0120635986328125;1;15;1.54593586921692E-08;-4.59912419319153E-08;100 nA
-0.0146484375;6.18216498439153;-9.3994140625E-10;-0.014483642578125;1;16;1.54593586921692E-08;-4.59912419319153E-08;100 nA
-0.01708984375;6.20657898432989;-1.092529296875E-09;-0.0169586181640625;1;17;1.54593586921692E-08;-4.59912419319153E-08;100 nA
-0.01953125;6.23099298426825;-8.23974609375E-10;-0.0193878173828125;1;18;1.54593586921692E-08;-4.59912419319153E-08;100 nA
-0.02197265625;6.25540698420662;-1.3641357421875E-09;-0.0218231201171875;1;19;1.54593586921692E-08;-4.59912419319153E-08;100 nA
-0.0244140625;6.27982098414498;-1.0467529296875E-09;-0.0242706298828125;1;20;1.54593586921692E-08;-4.59912419319153E-08;100 nA
-0.02685546875;6.30423498408334;-1.470947265625E-09;-0.0266815185546875;1;21;1.54593586921692E-08;-4.59912419319153E-08;100 nA
-0.029296875;6.3286489840217;-1.116943359375E-09;-0.02913818359375;1;22;1.54593586921692E-08;-4.59912419319153E-08;100 nA
-0.03173828125;6.35306298396006;-1.4556884765625E-09;-0.03157958984375;1;23;1.54593586921692E-08;-4.59912419319153E-08;100 nA
-0.0341796875;6.37747698389842;-1.708984375E-09;-0.033990478515625;1;24;1.54593586921692E-08;-4.59912419319153E-08;100 nA
-0.03662109375;6.40189098383678;-1.3519287109375E-09;-0.03646240234375;1;25;1.54593586921692E-08;-4.59912419319153E-08;100 nA
-0.0390625;6.42630498377514;-1.7364501953125E-09;-0.0389007568359375;1;26;1.54593586921692E-08;-4.59912419319153E-08;100 nA
-0.04150390625;6.4507189837135;-1.4617919921875E-09;-0.0413330078125;1;27;1.54593586921692E-08;-4.59912419319153E-08;100 nA
-0.0439453125;6.47513298365186;-1.397705078125E-09;-0.04378662109375;1;28;1.54593586921692E-08;-4.59912419319153E-08;100 nA
-0.04638671875;6.49954698359022;-1.751708984375E-09;-0.046240234375;1;29;1.54593586921692E-08;-4.59912419319153E-08;100 nA
-0.048828125;6.52396098352858;-1.8280029296875E-09;-0.048663330078125;1;30;1.54593586921692E-08;-4.59912419319153E-08;100 nA
-0.05126953125;6.54837498346694;-1.611328125E-09;-0.051116943359375;1;31;1.54593586921692E-08;-4.59912419319153E-08;100 nA
-0.0537109375;6.5727889834053;-1.77001953125E-09;-0.0535888671875;1;32;1.54593586921692E-08;-4.59912419319153E-08;100 nA
-0.05615234375;6.59720298334366;-1.9012451171875E-09;-0.0560302734375;1;33;1.54593586921692E-08;-4.59912419319153E-08;100 nA
-0.05859375;6.62161698328202;-1.72119140625E-09;-0.05853271484375;1;34;1.54593586921692E-08;-4.59912419319153E-08;100 nA
-0.06103515625;6.64603098322038;-2.0477294921875E-09;-0.0609130859375;1;35;1.54593586921692E-08;-4.59912419319153E-08;100 nA
-0.0634765625;6.67044498315875;-1.800537109375E-09;-0.063323974609375;1;36;1.54593586921692E-08;-4.59912419319153E-08;100 nA
-0.06591796875;6.69485898309711;-1.8310546875E-09;-0.065826416015625;1;37;1.54593586921692E-08;-4.59912419319153E-08;100 nA
-0.068359375;6.71927298303547;-1.8798828125E-09;-0.068267822265625;1;38;1.54593586921692E-08;-4.59912419319153E-08;100 nA
-0.07080078125;6.74368698297383;-2.0172119140625E-09;-0.070648193359375;1;39;1.54593586921692E-08;-4.59912419319153E-08;100 nA
-0.0732421875;6.76810098291219;-1.6876220703125E-09;-0.073089599609375;1;40;1.54593586921692E-08;-4.59912419319153E-08;100 nA
-0.07568359375;6.79251498285055;-2.239990234375E-09;-0.07550048828125;1;41;1.54593586921692E-08;-4.59912419319153E-08;100 nA
-0.078125;6.81692898278891;-2.1575927734375E-09;-0.0780029296875;1;42;1.54593586921692E-08;-4.59912419319153E-08;100 nA
-0.08056640625;6.84134298272727;-2.3101806640625E-09;-0.0804443359375;1;43;1.54593586921692E-08;-4.59912419319153E-08;100 nA
-0.0830078125;6.86575698266563;-1.910400390625E-09;-0.0828857421875;1;44;1.54593586921692E-08;-4.59912419319153E-08;100 nA
-0.08544921875;6.89017098260399;-2.3529052734375E-09;-0.08526611328125;1;45;1.54593586921692E-08;-4.59912419319153E-08;100 nA
-0.087890625;6.91458498254235;-1.824951171875E-09;-0.08770751953125;1;46;1.54593586921692E-08;-4.59912419319153E-08;100 nA
-0.09033203125;6.93899898248071;-2.4688720703125E-09;-0.090179443359375;1;47;1.54593586921692E-08;-4.59912419319153E-08;100 nA
-0.0927734375;6.96341298241907;-2.1514892578125E-09;-0.09259033203125;1;48;1.54593586921692E-08;-4.59912419319153E-08;100 nA
-0.09521484375;6.98782698235743;-2.215576171875E-09;-0.095062255859375;1;49;1.54593586921692E-08;-4.59912419319153E-08;100 nA
-0.09765625;7.01224098229579;-1.9439697265625E-09;-0.097442626953125;1;50;1.54593586921692E-08;-4.59912419319153E-08;100 nA
-0.10009765625;7.03665498223415;-2.67333984375E-09;-0.099945068359375;1;51;1.54593586921692E-08;-4.59912419319153E-08;100 nA
-0.1025390625;7.06106898217251;-2.484130859375E-09;-0.10235595703125;1;52;1.54593586921692E-08;-4.59912419319153E-08;100 nA
-0.10498046875;7.08548298211088;-2.1392822265625E-09;-0.104827880859375;1;53;1.54593586921692E-08;-4.59912419319153E-08;100 nA
-0.107421875;7.10989698204924;-2.5634765625E-09;-0.107208251953125;1;54;1.54593586921692E-08;-4.59912419319153E-08;100 nA
-0.10986328125;7.1343109819876;-2.0477294921875E-09;-0.109649658203125;1;55;1.54593586921692E-08;-4.59912419319153E-08;100 nA
-0.1123046875;7.15872498192596;-2.117919921875E-09;-0.11212158203125;1;56;1.54593586921692E-08;-4.59912419319153E-08;100 nA
-0.11474609375;7.18313898186432;-2.4810791015625E-09;-0.114593505859375;1;57;1.54593586921692E-08;-4.59912419319153E-08;100 nA
-0.1171875;7.20755298180268;-2.5604248046875E-09;-0.116973876953125;1;58;1.54593586921692E-08;-4.59912419319153E-08;100 nA
-0.11962890625;7.23196698174104;-2.337646484375E-09;-0.119384765625;1;59;1.54593586921692E-08;-4.59912419319153E-08;100 nA
-0.1220703125;7.2563809816794;-2.899169921875E-09;-0.12188720703125;1;60;1.54593586921692E-08;-4.59912419319153E-08;100 nA
-0.12451171875;7.28079498161776;-2.35595703125E-09;-0.124359130859375;1;61;1.54593586921692E-08;-4.59912419319153E-08;100 nA
-0.126953125;7.30520898155612;-2.490234375E-09;-0.126800537109375;1;62;1.54593586921692E-08;-4.59912419319153E-08;100 nA
-0.12939453125;7.32962298149448;-2.3773193359375E-09;-0.129180908203125;1;63;1.54593586921692E-08;-4.59912419319153E-08;100 nA
-0.1318359375;7.35403698143284;-2.2003173828125E-09;-0.131622314453125;1;64;1.54593586921692E-08;-4.59912419319153E-08;100 nA
-0.13427734375;7.3784509813712;-2.0721435546875E-09;-0.134124755859375;1;65;1.54593586921692E-08;-4.59912419319153E-08;100 nA
-0.13671875;7.40286498130956;-2.7923583984375E-09;-0.136505126953125;1;66;1.54593586921692E-08;-4.59912419319153E-08;100 nA
-0.13916015625;7.42727898124792;-2.447509765625E-09;-0.138916015625;1;67;1.54593586921692E-08;-4.59912419319153E-08;100 nA
-0.1416015625;7.45169298118628;-2.45361328125E-09;-0.141387939453125;1;68;1.54593586921692E-08;-4.59912419319153E-08;100 nA
-0.14404296875;7.47610698112464;-2.5482177734375E-09;-0.143798828125;1;69;1.54593586921692E-08;-4.59912419319153E-08;100 nA
-0.146484375;7.500520981063;-2.3345947265625E-09;-0.146240234375;1;70;1.54593586921692E-08;-4.59912419319153E-08;100 nA
-0.14892578125;7.52493498100137;-2.880859375E-09;-0.148681640625;1;71;1.54593586921692E-08;-4.59912419319153E-08;100 nA
-0.1513671875;7.54934898093973;-2.2552490234375E-09;-0.151153564453125;1;72;1.54593586921692E-08;-4.59912419319153E-08;100 nA
-0.15380859375;7.57376298087809;-2.7435302734375E-09;-0.15362548828125;1;73;1.54593586921692E-08;-4.59912419319153E-08;100 nA
-0.15625;7.59817698081645;-2.6123046875E-09;-0.15606689453125;1;74;1.54593586921692E-08;-4.59912419319153E-08;100 nA
-0.15869140625;7.62259098075481;-3.0914306640625E-09;-0.158447265625;1;75;1.54593586921692E-08;-4.59912419319153E-08;100 nA
-0.1611328125;7.64700498069317;-2.5543212890625E-09;-0.160888671875;1;76;1.54593586921692E-08;-4.59912419319153E-08;100 nA
-0.16357421875;7.67141898063153;-2.6702880859375E-09;-0.163330078125;1;77;1.54593586921692E-08;-4.59912419319153E-08;100 nA
-0.166015625;7.69583298056989;-2.374267578125E-09;-0.165802001953125;1;78;1.54593586921692E-08;-4.59912419319153E-08;100 nA
-0.16845703125;7.72024698050825;-2.862548828125E-09;-0.168243408203125;1;79;1.54593586921692E-08;-4.59912419319153E-08;100 nA
-0.1708984375;7.74466098044661;-2.7923583984375E-09;-0.170654296875;1;80;1.54593586921692E-08;-4.59912419319153E-08;100 nA
-0.17333984375;7.76907498038497;-2.7740478515625E-09;-0.173095703125;1;81;1.54593586921692E-08;-4.59912419319153E-08;100 nA
-0.17578125;7.79348898032333;-3.192138671875E-09;-0.175506591796875;1;82;1.54593586921692E-08;-4.59912419319153E-08;100 nA
-0.17822265625;7.81790298026169;-2.6214599609375E-09;-0.177947998046875;1;83;1.54593586921692E-08;-4.59912419319153E-08;100 nA
-0.1806640625;7.84231698020005;-2.94189453125E-09;-0.180419921875;1;84;1.54593586921692E-08;-4.59912419319153E-08;100 nA
-0.18310546875;7.86673098013841;-2.5054931640625E-09;-0.182830810546875;1;85;1.54593586921692E-08;-4.59912419319153E-08;100 nA
-0.185546875;7.89114498007677;-2.8961181640625E-09;-0.185302734375;1;86;1.54593586921692E-08;-4.59912419319153E-08;100 nA
-0.18798828125;7.91555898001513;-2.7069091796875E-09;-0.187744140625;1;87;1.54593586921692E-08;-4.59912419319153E-08;100 nA
-0.1904296875;7.9399729799535;-2.923583984375E-09;-0.19012451171875;1;88;1.54593586921692E-08;-4.59912419319153E-08;100 nA
-0.19287109375;7.96438697989186;-2.52685546875E-09;-0.19256591796875;1;89;1.54593586921692E-08;-4.59912419319153E-08;100 nA
-0.1953125;7.98880097983022;-3.094482421875E-09;-0.195098876953125;1;90;1.54593586921692E-08;-4.59912419319153E-08;100 nA
-0.19775390625;8.01321497976858;-2.7252197265625E-09;-0.197540283203125;1;91;1.54593586921692E-08;-4.59912419319153E-08;100 nA
-0.2001953125;8.03762897970694;-2.8076171875E-09;-0.19989013671875;1;92;1.54593586921692E-08;-4.59912419319153E-08;100 nA
-0.20263671875;8.0620429796453;-2.606201171875E-09;-0.202392578125;1;93;1.54593586921692E-08;-4.59912419319153E-08;100 nA
-0.205078125;8.08645697958366;-3.11279296875E-09;-0.204833984375;1;94;1.54593586921692E-08;-4.59912419319153E-08;100 nA
-0.20751953125;8.11087097952202;-3.021240234375E-09;-0.20721435546875;1;95;1.54593586921692E-08;-4.59912419319153E-08;100 nA
-0.2099609375;8.13528497946038;-3.0548095703125E-09;-0.20965576171875;1;96;1.54593586921692E-08;-4.59912419319153E-08;100 nA
-0.21240234375;8.15969897939874;-3.11279296875E-09;-0.212066650390625;1;97;1.54593586921692E-08;-4.59912419319153E-08;100 nA
-0.21484375;8.1841129793371;-2.886962890625E-09;-0.214569091796875;1;98;1.54593586921692E-08;-4.59912419319153E-08;100 nA
-0.21728515625;8.20852697927546;-3.28369140625E-09;-0.216888427734375;1;99;1.54593586921692E-08;-4.59912419319153E-08;100 nA
-0.2197265625;8.23294097921382;-3.1646728515625E-09;-0.219451904296875;1;100;1.54593586921692E-08;-4.59912419319153E-08;100 nA
-0.22216796875;8.25735497915218;-3.5125732421875E-09;-0.22186279296875;1;101;1.54593586921692E-08;-4.59912419319153E-08;100 nA
-0.224609375;8.28176897909054;-3.4454345703125E-09;-0.224334716796875;1;102;1.54593586921692E-08;-4.59912419319153E-08;100 nA
-0.22705078125;8.3061829790289;-3.7445068359375E-09;-0.22674560546875;1;103;1.54593586921692E-08;-4.59912419319153E-08;100 nA
-0.2294921875;8.33059697896726;-3.50341796875E-09;-0.229095458984375;1;104;1.54593586921692E-08;-4.59912419319153E-08;100 nA
-0.23193359375;8.35501097890563;-3.9703369140625E-09;-0.231689453125;1;105;1.54593586921692E-08;-4.59912419319153E-08;100 nA
-0.234375;8.37942497884399;-3.631591796875E-09;-0.234039306640625;1;106;1.54593586921692E-08;-4.59912419319153E-08;100 nA
-0.23681640625;8.40383897878235;-4.1473388671875E-09;-0.236572265625;1;107;1.54593586921692E-08;-4.59912419319153E-08;100 nA
-0.2392578125;8.42825297872071;-4.1748046875E-09;-0.23895263671875;1;108;1.54593586921692E-08;-4.59912419319153E-08;100 nA
-0.24169921875;8.45266697865907;-4.5623779296875E-09;-0.241363525390625;1;109;1.54593586921692E-08;-4.59912419319153E-08;100 nA
-0.244140625;8.47708097859743;-5.2398681640625E-09;-0.24383544921875;1;110;1.54593586921692E-08;-4.59912419319153E-08;100 nA
-0.24658203125;8.50149497853579;-5.4229736328125E-09;-0.246246337890625;1;111;1.54593586921692E-08;-4.59912419319153E-08;100 nA
-0.2490234375;8.52590897847415;-5.426025390625E-09;-0.248687744140625;1;112;1.54593586921692E-08;-4.59912419319153E-08;100 nA
-0.25146484375;8.55032297841251;-5.8807373046875E-09;-0.251129150390625;1;113;1.54593586921692E-08;-4.59912419319153E-08;100 nA
-0.25390625;8.57473697835087;-7.1319580078125E-09;-0.2535400390625;1;114;1.54593586921692E-08;-4.59912419319153E-08;100 nA
-0.25634765625;8.59915097828923;-7.159423828125E-09;-0.256011962890625;1;115;1.54593586921692E-08;-4.59912419319153E-08;100 nA
-0.2587890625;8.62356497822759;-8.3740234375E-09;-0.25848388671875;1;116;1.54593586921692E-08;-4.59912419319153E-08;100 nA
-0.26123046875;8.64797897816595;-8.734130859375E-09;-0.260894775390625;1;117;1.54593586921692E-08;-4.59912419319153E-08;100 nA
-0.263671875;8.67239297810431;-9.747314453125E-09;-0.263275146484375;1;118;1.54593586921692E-08;-4.59912419319153E-08;100 nA
-0.26611328125;8.69680697804267;-1.08367919921875E-08;-0.265777587890625;1;119;1.54593586921692E-08;-4.59912419319153E-08;100 nA
-0.2685546875;8.72122097798103;-1.20635986328125E-08;-0.268280029296875;1;120;1.54593586921692E-08;-4.59912419319153E-08;100 nA
-0.27099609375;8.74563497791939;-1.31591796875E-08;-0.270721435546875;1;121;1.54593586921692E-08;-4.59912419319153E-08;100 nA
-0.2734375;8.77004897785775;-1.48712158203125E-08;-0.273040771484375;1;122;1.54593586921692E-08;-4.59912419319153E-08;100 nA
-0.27587890625;8.79446297779612;-1.62994384765625E-08;-0.275543212890625;1;123;1.54593586921692E-08;-4.59912419319153E-08;100 nA
-0.2783203125;8.81887697773448;-1.83441162109375E-08;-0.277984619140625;1;124;1.54593586921692E-08;-4.59912419319153E-08;100 nA
-0.28076171875;8.84329097767284;-1.9879150390625E-08;-0.280364990234375;1;125;1.54593586921692E-08;-4.59912419319153E-08;100 nA
-0.283203125;8.8677049776112;-2.17559814453125E-08;-0.2828369140625;1;126;1.54593586921692E-08;-4.59912419319153E-08;100 nA
-0.28564453125;8.89211897754956;-2.35687255859375E-08;-0.2852783203125;1;127;1.54593586921692E-08;-4.59912419319153E-08;100 nA
-0.2880859375;8.91653297748792;-2.55126953125E-08;-0.2877197265625;1;128;1.54593586921692E-08;-4.59912419319153E-08;100 nA
-0.29052734375;8.94094697742628;-2.7197265625E-08;-0.290130615234375;1;129;1.54593586921692E-08;-4.59912419319153E-08;100 nA
-0.29296875;8.96536097736464;-2.81158447265625E-08;-0.292633056640625;1;130;1.54593586921692E-08;-4.59912419319153E-08;100 nA
-0.29541015625;8.989774977303;-3.02398681640625E-08;-0.295013427734375;1;131;1.54593586921692E-08;-4.59912419319153E-08;100 nA
-0.2978515625;9.01418897724136;-3.07769775390625E-08;-0.2974853515625;1;132;1.54593586921692E-08;-4.59912419319153E-08;100 nA
-0.30029296875;9.03860297717972;-3.18450927734375E-08;-0.2999267578125;1;133;1.54593586921692E-08;-4.59912419319153E-08;100 nA
-0.302734375;9.06301697711808;-3.1463623046875E-08;-0.302337646484375;1;134;1.54593586921692E-08;-4.59912419319153E-08;100 nA
-0.30517578125;9.08743097705644;-3.1494140625E-08;-0.3048095703125;1;135;1.54593586921692E-08;-4.59912419319153E-08;100 nA
-0.3076171875;9.1118449769948;-3.11126708984375E-08;-0.30718994140625;1;136;1.54593586921692E-08;-4.59912419319153E-08;100 nA
-0.31005859375;9.13625897693316;-3.06182861328125E-08;-0.30963134765625;1;137;1.54593586921692E-08;-4.59912419319153E-08;100 nA
-0.3125;9.16067297687152;-2.92572021484375E-08;-0.3121337890625;1;138;1.54593586921692E-08;-4.59912419319153E-08;100 nA
-0.31494140625;9.18508697680988;-2.7685546875E-08;-0.3145751953125;1;139;1.54593586921692E-08;-4.59912419319153E-08;100 nA
-0.3173828125;9.20950097674825;-2.59429931640625E-08;-0.316986083984375;1;140;1.54593586921692E-08;-4.59912419319153E-08;100 nA
-0.31982421875;9.23391497668661;-2.401123046875E-08;-0.31951904296875;1;141;1.54593586921692E-08;-4.59912419319153E-08;100 nA
-0.322265625;9.25832897662497;-2.2705078125E-08;-0.321868896484375;1;142;1.54593586921692E-08;-4.59912419319153E-08;100 nA
-0.32470703125;9.28274297656333;-2.06878662109375E-08;-0.3243408203125;1;143;1.54593586921692E-08;-4.59912419319153E-08;100 nA
-0.3271484375;9.30715697650169;-1.9488525390625E-08;-0.326751708984375;1;144;1.54593586921692E-08;-4.59912419319153E-08;100 nA
-0.32958984375;9.33157097644005;-1.72882080078125E-08;-0.329193115234375;1;145;1.54593586921692E-08;-4.59912419319153E-08;100 nA
-0.33203125;9.35598497637841;-1.63604736328125E-08;-0.331634521484375;1;146;1.54593586921692E-08;-4.59912419319153E-08;100 nA
-0.33447265625;9.38039897631677;-1.48773193359375E-08;-0.3341064453125;1;147;1.54593586921692E-08;-4.59912419319153E-08;100 nA
-0.3369140625;9.40481297625513;-1.40533447265625E-08;-0.3365478515625;1;148;1.54593586921692E-08;-4.59912419319153E-08;100 nA
-0.33935546875;9.42922697619349;-1.2890625E-08;-0.3389892578125;1;149;1.54593586921692E-08;-4.59912419319153E-08;100 nA
-0.341796875;9.45364097613185;-1.22344970703125E-08;-0.34136962890625;1;150;1.54593586921692E-08;-4.59912419319153E-08;100 nA
-0.34423828125;9.47805497607021;-1.1663818359375E-08;-0.343841552734375;1;151;1.54593586921692E-08;-4.59912419319153E-08;100 nA
-0.3466796875;9.50246897600857;-1.123046875E-08;-0.34625244140625;1;152;1.54593586921692E-08;-4.59912419319153E-08;100 nA
-0.34912109375;9.52688297594693;-1.02569580078125E-08;-0.348785400390625;1;153;1.54593586921692E-08;-4.59912419319153E-08;100 nA
-0.3515625;9.55129697588529;-1.07666015625E-08;-0.351226806640625;1;154;1.54593586921692E-08;-4.59912419319153E-08;100 nA
-0.35400390625;9.57571097582365;-1.0455322265625E-08;-0.353607177734375;1;155;1.54593586921692E-08;-4.59912419319153E-08;100 nA
-0.3564453125;9.60012497576201;-1.03546142578125E-08;-0.356048583984375;1;156;1.54593586921692E-08;-4.59912419319153E-08;100 nA
-0.35888671875;9.62453897570037;-1.00341796875E-08;-0.358551025390625;1;157;1.54593586921692E-08;-4.59912419319153E-08;100 nA
-0.361328125;9.64895297563874;-9.7747802734375E-09;-0.360931396484375;1;158;1.54593586921692E-08;-4.59912419319153E-08;100 nA
-0.36376953125;9.6733669755771;-1.02783203125E-08;-0.36334228515625;1;159;1.54593586921692E-08;-4.59912419319153E-08;100 nA
-0.3662109375;9.69778097551546;-1.00433349609375E-08;-0.3658447265625;1;160;1.54593586921692E-08;-4.59912419319153E-08;100 nA
-0.36865234375;9.72219497545382;-1.02783203125E-08;-0.36822509765625;1;161;1.54593586921692E-08;-4.59912419319153E-08;100 nA
-0.37109375;9.74660897539218;-9.8663330078125E-09;-0.370635986328125;1;162;1.54593586921692E-08;-4.59912419319153E-08;100 nA
-0.37353515625;9.77102297533054;-1.0205078125E-08;-0.37310791015625;1;163;1.54593586921692E-08;-4.59912419319153E-08;100 nA
-0.3759765625;9.7954369752689;-9.7564697265625E-09;-0.37554931640625;1;164;1.54593586921692E-08;-4.59912419319153E-08;100 nA
-0.37841796875;9.81985097520726;-1.05926513671875E-08;-0.37799072265625;1;165;1.54593586921692E-08;-4.59912419319153E-08;100 nA
-0.380859375;9.84426497514562;-1.0308837890625E-08;-0.380462646484375;1;166;1.54593586921692E-08;-4.59912419319153E-08;100 nA
-0.38330078125;9.86867897508398;-1.0675048828125E-08;-0.38287353515625;1;167;1.54593586921692E-08;-4.59912419319153E-08;100 nA
-0.3857421875;9.89309297502234;-1.10260009765625E-08;-0.385345458984375;1;168;1.54593586921692E-08;-4.59912419319153E-08;100 nA
-0.38818359375;9.9175069749607;-1.09527587890625E-08;-0.38775634765625;1;169;1.54593586921692E-08;-4.59912419319153E-08;100 nA
-0.390625;9.94192097489906;-1.09832763671875E-08;-0.390167236328125;1;170;1.54593586921692E-08;-4.59912419319153E-08;100 nA
-0.39306640625;9.96633497483742;-1.0791015625E-08;-0.392669677734375;1;171;1.54593586921692E-08;-4.59912419319153E-08;100 nA
-0.3955078125;9.99074897477578;-1.09283447265625E-08;-0.3951416015625;1;172;1.54593586921692E-08;-4.59912419319153E-08;100 nA
-0.39794921875;10.0151629747141;-1.13006591796875E-08;-0.397552490234375;1;173;1.54593586921692E-08;-4.59912419319153E-08;100 nA
-0.400390625;10.0395769746525;-1.18377685546875E-08;-0.399993896484375;1;174;1.54593586921692E-08;-4.59912419319153E-08;100 nA
-0.40283203125;10.0639909745909;-1.14349365234375E-08;-0.40234375;1;175;1.54593586921692E-08;-4.59912419319153E-08;100 nA
-0.4052734375;10.0884049745292;-1.1761474609375E-08;-0.404815673828125;1;176;1.54593586921692E-08;-4.59912419319153E-08;100 nA
-0.40771484375;10.1128189744676;-1.13677978515625E-08;-0.407257080078125;1;177;1.54593586921692E-08;-4.59912419319153E-08;100 nA
-0.41015625;10.1372329744059;-1.1895751953125E-08;-0.409759521484375;1;178;1.54593586921692E-08;-4.59912419319153E-08;100 nA
-0.41259765625;10.1616469743443;-1.1773681640625E-08;-0.412139892578125;1;179;1.54593586921692E-08;-4.59912419319153E-08;100 nA
-0.4150390625;10.1860609742827;-1.2347412109375E-08;-0.41461181640625;1;180;1.54593586921692E-08;-4.59912419319153E-08;100 nA
-0.41748046875;10.210474974221;-1.23016357421875E-08;-0.417083740234375;1;181;1.54593586921692E-08;-4.59912419319153E-08;100 nA
-0.419921875;10.2348889741594;-1.25518798828125E-08;-0.419525146484375;1;182;1.54593586921692E-08;-4.59912419319153E-08;100 nA
-0.42236328125;10.2593029740977;-1.265869140625E-08;-0.421844482421875;1;183;1.54593586921692E-08;-4.59912419319153E-08;100 nA
-0.4248046875;10.2837169740361;-1.290283203125E-08;-0.424346923828125;1;184;1.54593586921692E-08;-4.59912419319153E-08;100 nA
-0.42724609375;10.3081309739745;-1.30279541015625E-08;-0.42681884765625;1;185;1.54593586921692E-08;-4.59912419319153E-08;100 nA
-0.4296875;10.3325449739128;-1.2945556640625E-08;-0.429229736328125;1;186;1.54593586921692E-08;-4.59912419319153E-08;100 nA
-0.43212890625;10.3569589738512;-1.3671875E-08;-0.43170166015625;1;187;1.54593586921692E-08;-4.59912419319153E-08;100 nA
-0.4345703125;10.3813729737896;-1.32537841796875E-08;-0.43414306640625;1;188;1.54593586921692E-08;-4.59912419319153E-08;100 nA
-0.43701171875;10.4057869737279;-1.39404296875E-08;-0.43658447265625;1;189;1.54593586921692E-08;-4.59912419319153E-08;100 nA
-0.439453125;10.4302009736663;-1.37847900390625E-08;-0.438995361328125;1;190;1.54593586921692E-08;-4.59912419319153E-08;100 nA
-0.44189453125;10.4546149736046;-1.36505126953125E-08;-0.44140625;1;191;1.54593586921692E-08;-4.59912419319153E-08;100 nA
-0.4443359375;10.479028973543;-1.41326904296875E-08;-0.44384765625;1;192;1.54593586921692E-08;-4.59912419319153E-08;100 nA
-0.44677734375;10.5034429734814;-1.414794921875E-08;-0.446319580078125;1;193;1.54593586921692E-08;-4.59912419319153E-08;100 nA
-0.44921875;10.5278569734197;-1.446533203125E-08;-0.44873046875;1;194;1.54593586921692E-08;-4.59912419319153E-08;100 nA
-0.45166015625;10.5522709733581;-1.46270751953125E-08;-0.451202392578125;1;195;1.54593586921692E-08;-4.59912419319153E-08;100 nA
-0.44921875;10.5766849732964;-1.40625E-08;-0.44873046875;1;196;1.54593586921692E-08;-4.59912419319153E-08;100 nA
-0.44677734375;10.6010989732348;-1.34857177734375E-08;-0.44635009765625;1;197;1.54593586921692E-08;-4.59912419319153E-08;100 nA
-0.4443359375;10.6255129731732;-1.30126953125E-08;-0.44384765625;1;198;1.54593586921692E-08;-4.59912419319153E-08;100 nA
-0.44189453125;10.6499269731115;-1.24298095703125E-08;-0.441436767578125;1;199;1.54593586921692E-08;-4.59912419319153E-08;100 nA
-0.439453125;10.6743409730499;-1.28265380859375E-08;-0.438995361328125;1;200;1.54593586921692E-08;-4.59912419319153E-08;100 nA
-0.43701171875;10.6987549729882;-1.1669921875E-08;-0.4365234375;1;201;1.54593586921692E-08;-4.59912419319153E-08;100 nA
-0.4345703125;10.7231689729266;-1.19140625E-08;-0.43414306640625;1;202;1.54593586921692E-08;-4.59912419319153E-08;100 nA
-0.43212890625;10.747582972865;-1.11175537109375E-08;-0.431640625;1;203;1.54593586921692E-08;-4.59912419319153E-08;100 nA
-0.4296875;10.7719969728033;-1.11846923828125E-08;-0.42926025390625;1;204;1.54593586921692E-08;-4.59912419319153E-08;100 nA
-0.42724609375;10.7964109727417;-1.07177734375E-08;-0.42681884765625;1;205;1.54593586921692E-08;-4.59912419319153E-08;100 nA
-0.4248046875;10.82082497268;-1.01531982421875E-08;-0.424285888671875;1;206;1.54593586921692E-08;-4.59912419319153E-08;100 nA
-0.42236328125;10.8452389726184;-1.02142333984375E-08;-0.421875;1;207;1.54593586921692E-08;-4.59912419319153E-08;100 nA
-0.419921875;10.8696529725568;-9.8846435546875E-09;-0.419464111328125;1;208;1.54593586921692E-08;-4.59912419319153E-08;100 nA
-0.41748046875;10.8940669724951;-9.539794921875E-09;-0.416961669921875;1;209;1.54593586921692E-08;-4.59912419319153E-08;100 nA
-0.4150390625;10.9184809724335;-9.5001220703125E-09;-0.41455078125;1;210;1.54593586921692E-08;-4.59912419319153E-08;100 nA
-0.41259765625;10.9428949723718;-9.588623046875E-09;-0.412139892578125;1;211;1.54593586921692E-08;-4.59912419319153E-08;100 nA
-0.41015625;10.9673089723102;-8.8165283203125E-09;-0.409698486328125;1;212;1.54593586921692E-08;-4.59912419319153E-08;100 nA
-0.40771484375;10.9917229722486;-8.9324951171875E-09;-0.40728759765625;1;213;1.54593586921692E-08;-4.59912419319153E-08;100 nA
-0.4052734375;11.0161369721869;-8.355712890625E-09;-0.404815673828125;1;214;1.54593586921692E-08;-4.59912419319153E-08;100 nA
-0.40283203125;11.0405509721253;-8.1695556640625E-09;-0.402374267578125;1;215;1.54593586921692E-08;-4.59912419319153E-08;100 nA
-0.400390625;11.0649649720636;-7.958984375E-09;-0.399993896484375;1;216;1.54593586921692E-08;-4.59912419319153E-08;100 nA
-0.39794921875;11.089378972002;-7.867431640625E-09;-0.39752197265625;1;217;1.54593586921692E-08;-4.59912419319153E-08;100 nA
-0.3955078125;11.1137929719404;-7.3822021484375E-09;-0.3951416015625;1;218;1.54593586921692E-08;-4.59912419319153E-08;100 nA
-0.39306640625;11.1382069718787;-7.269287109375E-09;-0.392669677734375;1;219;1.54593586921692E-08;-4.59912419319153E-08;100 nA
-0.390625;11.1626209718171;-7.2418212890625E-09;-0.390228271484375;1;220;1.54593586921692E-08;-4.59912419319153E-08;100 nA
-0.38818359375;11.1870349717555;-7.2509765625E-09;-0.3878173828125;1;221;1.54593586921692E-08;-4.59912419319153E-08;100 nA
-0.3857421875;11.2114489716938;-6.781005859375E-09;-0.38525390625;1;222;1.54593586921692E-08;-4.59912419319153E-08;100 nA
-0.38330078125;11.2358629716322;-6.9244384765625E-09;-0.382904052734375;1;223;1.54593586921692E-08;-4.59912419319153E-08;100 nA
-0.380859375;11.2602769715705;-6.7962646484375E-09;-0.38043212890625;1;224;1.54593586921692E-08;-4.59912419319153E-08;100 nA
-0.37841796875;11.2846909715089;-6.011962890625E-09;-0.3780517578125;1;225;1.54593586921692E-08;-4.59912419319153E-08;100 nA
-0.3759765625;11.3091049714473;-6.2103271484375E-09;-0.37554931640625;1;226;1.54593586921692E-08;-4.59912419319153E-08;100 nA
-0.37353515625;11.3335189713856;-5.76171875E-09;-0.373138427734375;1;227;1.54593586921692E-08;-4.59912419319153E-08;100 nA
-0.37109375;11.357932971324;-5.70068359375E-09;-0.370697021484375;1;228;1.54593586921692E-08;-4.59912419319153E-08;100 nA
-0.36865234375;11.3823469712623;-5.45654296875E-09;-0.368255615234375;1;229;1.54593586921692E-08;-4.59912419319153E-08;100 nA
-0.3662109375;11.4067609712007;-5.419921875E-09;-0.365814208984375;1;230;1.54593586921692E-08;-4.59912419319153E-08;100 nA
-0.36376953125;11.4311749711391;-4.9774169921875E-09;-0.36334228515625;1;231;1.54593586921692E-08;-4.59912419319153E-08;100 nA
-0.361328125;11.4555889710774;-5.3619384765625E-09;-0.3609619140625;1;232;1.54593586921692E-08;-4.59912419319153E-08;100 nA
-0.35888671875;11.4800029710158;-4.74853515625E-09;-0.358489990234375;1;233;1.54593586921692E-08;-4.59912419319153E-08;100 nA
-0.3564453125;11.5044169709541;-3.857421875E-09;-0.35614013671875;1;234;1.54593586921692E-08;-4.59912419319153E-08;100 nA
-0.35400390625;11.5288309708925;-4.1290283203125E-09;-0.3536376953125;1;235;1.54593586921692E-08;-4.59912419319153E-08;100 nA
-0.3515625;11.5532449708309;-3.4698486328125E-09;-0.35113525390625;1;236;1.54593586921692E-08;-4.59912419319153E-08;100 nA
-0.34912109375;11.5776589707692;-3.2867431640625E-09;-0.348724365234375;1;237;1.54593586921692E-08;-4.59912419319153E-08;100 nA
-0.3466796875;11.6020729707076;-2.9266357421875E-09;-0.346282958984375;1;238;1.54593586921692E-08;-4.59912419319153E-08;100 nA
-0.34423828125;11.6264869706459;-2.032470703125E-09;-0.34381103515625;1;239;1.54593586921692E-08;-4.59912419319153E-08;100 nA
-0.341796875;11.6509009705843;-1.40380859375E-09;-0.341400146484375;1;240;1.54593586921692E-08;-4.59912419319153E-08;100 nA
-0.33935546875;11.6753149705227;-8.026123046875E-10;-0.3389892578125;1;241;1.54593586921692E-08;-4.59912419319153E-08;100 nA
-0.3369140625;11.699728970461;3.082275390625E-10;-0.336517333984375;1;242;1.54593586921692E-08;-4.59912419319153E-08;100 nA
-0.33447265625;11.7241429703994;9.490966796875E-10;-0.334136962890625;1;243;1.54593586921692E-08;-4.59912419319153E-08;100 nA
-0.33203125;11.7485569703377;2.215576171875E-09;-0.3316650390625;1;244;1.54593586921692E-08;-4.59912419319153E-08;100 nA
-0.32958984375;11.7729709702761;3.4210205078125E-09;-0.329193115234375;1;245;1.54593586921692E-08;-4.59912419319153E-08;100 nA
-0.3271484375;11.7973849702145;5.487060546875E-09;-0.3267822265625;1;246;1.54593586921692E-08;-4.59912419319153E-08;100 nA
-0.32470703125;11.8217989701528;6.2286376953125E-09;-0.32440185546875;1;247;1.54593586921692E-08;-4.59912419319153E-08;100 nA
-0.322265625;11.8462129700912;8.06884765625E-09;-0.321929931640625;1;248;1.54593586921692E-08;-4.59912419319153E-08;100 nA
-0.31982421875;11.8706269700295;1.00341796875E-08;-0.3194580078125;1;249;1.54593586921692E-08;-4.59912419319153E-08;100 nA
-0.3173828125;11.8950409699679;1.20574951171875E-08;-0.31707763671875;1;250;1.54593586921692E-08;-4.59912419319153E-08;100 nA
-0.31494140625;11.9194549699063;1.3751220703125E-08;-0.314666748046875;1;251;1.54593586921692E-08;-4.59912419319153E-08;100 nA
-0.3125;11.9438689698446;1.5679931640625E-08;-0.312164306640625;1;252;1.54593586921692E-08;-4.59912419319153E-08;100 nA
-0.31005859375;11.968282969783;1.717529296875E-08;-0.30975341796875;1;253;1.54593586921692E-08;-4.59912419319153E-08;100 nA
-0.3076171875;11.9926969697214;1.927490234375E-08;-0.307281494140625;1;254;1.54593586921692E-08;-4.59912419319153E-08;100 nA
-0.30517578125;12.0171109696597;2.0550537109375E-08;-0.30487060546875;1;255;1.54593586921692E-08;-4.59912419319153E-08;100 nA
-0.302734375;12.0415249695981;2.1527099609375E-08;-0.302398681640625;1;256;1.54593586921692E-08;-4.59912419319153E-08;100 nA
-0.30029296875;12.0659389695364;2.25189208984375E-08;-0.29998779296875;1;257;1.54593586921692E-08;-4.59912419319153E-08;100 nA
-0.2978515625;12.0903529694748;2.32330322265625E-08;-0.297515869140625;1;258;1.54593586921692E-08;-4.59912419319153E-08;100 nA
-0.29541015625;12.1147669694132;2.35260009765625E-08;-0.295074462890625;1;259;1.54593586921692E-08;-4.59912419319153E-08;100 nA
-0.29296875;12.1391809693515;2.32208251953125E-08;-0.292694091796875;1;260;1.54593586921692E-08;-4.59912419319153E-08;100 nA
-0.29052734375;12.1635949692899;2.3028564453125E-08;-0.2901611328125;1;261;1.54593586921692E-08;-4.59912419319153E-08;100 nA
-0.2880859375;12.1880089692282;2.2216796875E-08;-0.2877197265625;1;262;1.54593586921692E-08;-4.59912419319153E-08;100 nA
-0.28564453125;12.2124229691666;2.1258544921875E-08;-0.285369873046875;1;263;1.54593586921692E-08;-4.59912419319153E-08;100 nA
-0.283203125;12.236836969105;1.9384765625E-08;-0.282867431640625;1;264;1.54593586921692E-08;-4.59912419319153E-08;100 nA
-0.28076171875;12.2612509690433;1.868896484375E-08;-0.280487060546875;1;265;1.54593586921692E-08;-4.59912419319153E-08;100 nA
-0.2783203125;12.2856649689817;1.69219970703125E-08;-0.27801513671875;1;266;1.54593586921692E-08;-4.59912419319153E-08;100 nA
-0.27587890625;12.31007896892;1.55303955078125E-08;-0.275543212890625;1;267;1.54593586921692E-08;-4.59912419319153E-08;100 nA
-0.2734375;12.3344929688584;1.3812255859375E-08;-0.27313232421875;1;268;1.54593586921692E-08;-4.59912419319153E-08;100 nA
-0.27099609375;12.3589069687968;1.24267578125E-08;-0.270721435546875;1;269;1.54593586921692E-08;-4.59912419319153E-08;100 nA
-0.2685546875;12.3833209687351;1.10107421875E-08;-0.268280029296875;1;270;1.54593586921692E-08;-4.59912419319153E-08;100 nA
-0.26611328125;12.4077349686735;1.02264404296875E-08;-0.265838623046875;1;271;1.54593586921692E-08;-4.59912419319153E-08;100 nA
-0.263671875;12.4321489686118;9.02099609375E-09;-0.263397216796875;1;272;1.54593586921692E-08;-4.59912419319153E-08;100 nA
-0.26123046875;12.4565629685502;7.818603515625E-09;-0.2608642578125;1;273;1.54593586921692E-08;-4.59912419319153E-08;100 nA
-0.2587890625;12.4809769684886;7.196044921875E-09;-0.25848388671875;1;274;1.54593586921692E-08;-4.59912419319153E-08;100 nA
-0.25634765625;12.5053909684269;5.9539794921875E-09;-0.25604248046875;1;275;1.54593586921692E-08;-4.59912419319153E-08;100 nA
-0.25390625;12.5298049683653;5.7830810546875E-09;-0.25360107421875;1;276;1.54593586921692E-08;-4.59912419319153E-08;100 nA
-0.25146484375;12.5542189683036;4.3853759765625E-09;-0.251129150390625;1;277;1.54593586921692E-08;-4.59912419319153E-08;100 nA
-0.2490234375;12.578632968242;4.13818359375E-09;-0.248687744140625;1;278;1.54593586921692E-08;-4.59912419319153E-08;100 nA
-0.24658203125;12.6030469681804;3.857421875E-09;-0.246246337890625;1;279;1.54593586921692E-08;-4.59912419319153E-08;100 nA
-0.244140625;12.6274609681187;3.4088134765625E-09;-0.24383544921875;1;280;1.54593586921692E-08;-4.59912419319153E-08;100 nA
-0.24169921875;12.6518749680571;2.7801513671875E-09;-0.241455078125;1;281;1.54593586921692E-08;-4.59912419319153E-08;100 nA
-0.2392578125;12.6762889679954;2.3529052734375E-09;-0.23895263671875;1;282;1.54593586921692E-08;-4.59912419319153E-08;100 nA
-0.23681640625;12.7007029679338;2.5726318359375E-09;-0.23651123046875;1;283;1.54593586921692E-08;-4.59912419319153E-08;100 nA
-0.234375;12.7251169678722;2.1209716796875E-09;-0.234100341796875;1;284;1.54593586921692E-08;-4.59912419319153E-08;100 nA
-0.23193359375;12.7495309678105;2.4078369140625E-09;-0.231689453125;1;285;1.54593586921692E-08;-4.59912419319153E-08;100 nA
-0.2294921875;12.7739449677489;1.2939453125E-09;-0.229156494140625;1;286;1.54593586921692E-08;-4.59912419319153E-08;100 nA
-0.22705078125;12.7983589676872;1.690673828125E-09;-0.22674560546875;1;287;1.54593586921692E-08;-4.59912419319153E-08;100 nA
-0.224609375;12.8227729676256;1.3946533203125E-09;-0.224334716796875;1;288;1.54593586921692E-08;-4.59912419319153E-08;100 nA
-0.22216796875;12.847186967564;1.37939453125E-09;-0.22186279296875;1;289;1.54593586921692E-08;-4.59912419319153E-08;100 nA
-0.2197265625;12.8716009675023;1.1444091796875E-09;-0.21942138671875;1;290;1.54593586921692E-08;-4.59912419319153E-08;100 nA
-0.21728515625;12.8960149674407;1.2542724609375E-09;-0.217041015625;1;291;1.54593586921692E-08;-4.59912419319153E-08;100 nA
-0.21484375;12.9204289673791;1.1627197265625E-09;-0.214599609375;1;292;1.54593586921692E-08;-4.59912419319153E-08;100 nA
-0.21240234375;12.9448429673174;1.1749267578125E-09;-0.212158203125;1;293;1.54593586921692E-08;-4.59912419319153E-08;100 nA
-0.2099609375;12.9692569672558;1.141357421875E-09;-0.20965576171875;1;294;1.54593586921692E-08;-4.59912419319153E-08;100 nA
-0.20751953125;12.9936709671941;8.758544921875E-10;-0.20721435546875;1;295;1.54593586921692E-08;-4.59912419319153E-08;100 nA
-0.205078125;13.0180849671325;1.2847900390625E-09;-0.204833984375;1;296;1.54593586921692E-08;-4.59912419319153E-08;100 nA
-0.20263671875;13.0424989670709;1.07421875E-09;-0.202392578125;1;297;1.54593586921692E-08;-4.59912419319153E-08;100 nA
-0.2001953125;13.0669129670092;1.0650634765625E-09;-0.19989013671875;1;298;1.54593586921692E-08;-4.59912419319153E-08;100 nA
-0.19775390625;13.0913269669476;9.429931640625E-10;-0.197479248046875;1;299;1.54593586921692E-08;-4.59912419319153E-08;100 nA
-0.1953125;13.1157409668859;1.068115234375E-09;-0.19500732421875;1;300;1.54593586921692E-08;-4.59912419319153E-08;100 nA
-0.19287109375;13.1401549668243;8.056640625E-10;-0.19256591796875;1;301;1.54593586921692E-08;-4.59912419319153E-08;100 nA
-0.1904296875;13.1645689667627;1.2481689453125E-09;-0.19012451171875;1;302;1.54593586921692E-08;-4.59912419319153E-08;100 nA
-0.18798828125;13.188982966701;7.232666015625E-10;-0.187744140625;1;303;1.54593586921692E-08;-4.59912419319153E-08;100 nA
-0.185546875;13.2133969666394;1.2054443359375E-09;-0.185302734375;1;304;1.54593586921692E-08;-4.59912419319153E-08;100 nA
-0.18310546875;13.2378109665777;1.226806640625E-09;-0.182861328125;1;305;1.54593586921692E-08;-4.59912419319153E-08;100 nA
-0.1806640625;13.2622249665161;1.1077880859375E-09;-0.180389404296875;1;306;1.54593586921692E-08;-4.59912419319153E-08;100 nA
-0.17822265625;13.2866389664545;1.324462890625E-09;-0.177978515625;1;307;1.54593586921692E-08;-4.59912419319153E-08;100 nA
-0.17578125;13.3110529663928;1.2969970703125E-09;-0.175537109375;1;308;1.54593586921692E-08;-4.59912419319153E-08;100 nA
-0.17333984375;13.3354669663312;1.055908203125E-09;-0.173095703125;1;309;1.54593586921692E-08;-4.59912419319153E-08;100 nA
-0.1708984375;13.3598809662695;1.13525390625E-09;-0.170684814453125;1;310;1.54593586921692E-08;-4.59912419319153E-08;100 nA
-0.16845703125;13.3842949662079;1.2115478515625E-09;-0.168182373046875;1;311;1.54593586921692E-08;-4.59912419319153E-08;100 nA
-0.166015625;13.4087089661463;1.3397216796875E-09;-0.165771484375;1;312;1.54593586921692E-08;-4.59912419319153E-08;100 nA
-0.16357421875;13.4331229660846;1.092529296875E-09;-0.163330078125;1;313;1.54593586921692E-08;-4.59912419319153E-08;100 nA
-0.1611328125;13.457536966023;7.99560546875E-10;-0.160919189453125;1;314;1.54593586921692E-08;-4.59912419319153E-08;100 nA
-0.15869140625;13.4819509659613;1.0162353515625E-09;-0.158447265625;1;315;1.54593586921692E-08;-4.59912419319153E-08;100 nA
-0.15625;13.5063649658997;1.2237548828125E-09;-0.15606689453125;1;316;1.54593586921692E-08;-4.59912419319153E-08;100 nA
-0.15380859375;13.5307789658381;1.3397216796875E-09;-0.15362548828125;1;317;1.54593586921692E-08;-4.59912419319153E-08;100 nA
-0.1513671875;13.5551929657764;9.857177734375E-10;-0.151153564453125;1;318;1.54593586921692E-08;-4.59912419319153E-08;100 nA
-0.14892578125;13.5796069657148;1.2481689453125E-09;-0.148712158203125;1;319;1.54593586921692E-08;-4.59912419319153E-08;100 nA
-0.146484375;13.6040209656531;1.3153076171875E-09;-0.146270751953125;1;320;1.54593586921692E-08;-4.59912419319153E-08;100 nA
-0.14404296875;13.6284349655915;1.678466796875E-09;-0.143890380859375;1;321;1.54593586921692E-08;-4.59912419319153E-08;100 nA
-0.1416015625;13.6528489655299;8.97216796875E-10;-0.141357421875;1;322;1.54593586921692E-08;-4.59912419319153E-08;100 nA
-0.13916015625;13.6772629654682;1.3702392578125E-09;-0.13897705078125;1;323;1.54593586921692E-08;-4.59912419319153E-08;100 nA
-0.13671875;13.7016769654066;1.3275146484375E-09;-0.136505126953125;1;324;1.54593586921692E-08;-4.59912419319153E-08;100 nA
-0.13427734375;13.726090965345;1.3153076171875E-09;-0.134063720703125;1;325;1.54593586921692E-08;-4.59912419319153E-08;100 nA
-0.1318359375;13.7505049652833;1.3702392578125E-09;-0.13165283203125;1;326;1.54593586921692E-08;-4.59912419319153E-08;100 nA
-0.12939453125;13.7749189652217;1.080322265625E-09;-0.129180908203125;1;327;1.54593586921692E-08;-4.59912419319153E-08;100 nA
-0.126953125;13.79933296516;1.5625E-09;-0.12677001953125;1;328;1.54593586921692E-08;-4.59912419319153E-08;100 nA
-0.12451171875;13.8237469650984;1.4190673828125E-09;-0.12432861328125;1;329;1.54593586921692E-08;-4.59912419319153E-08;100 nA
-0.1220703125;13.8481609650368;1.3458251953125E-09;-0.121856689453125;1;330;1.54593586921692E-08;-4.59912419319153E-08;100 nA
-0.11962890625;13.8725749649751;1.0223388671875E-09;-0.119415283203125;1;331;1.54593586921692E-08;-4.59912419319153E-08;100 nA
-0.1171875;13.8969889649135;1.2176513671875E-09;-0.116973876953125;1;332;1.54593586921692E-08;-4.59912419319153E-08;100 nA
-0.11474609375;13.9214029648518;1.1444091796875E-09;-0.11456298828125;1;333;1.54593586921692E-08;-4.59912419319153E-08;100 nA
-0.1123046875;13.9458169647902;1.5106201171875E-09;-0.1121826171875;1;334;1.54593586921692E-08;-4.59912419319153E-08;100 nA
-0.10986328125;13.9702309647286;1.446533203125E-09;-0.109649658203125;1;335;1.54593586921692E-08;-4.59912419319153E-08;100 nA
-0.107421875;13.9946449646669;1.9073486328125E-09;-0.107269287109375;1;336;1.54593586921692E-08;-4.59912419319153E-08;100 nA
-0.10498046875;14.0190589646053;1.1749267578125E-09;-0.104827880859375;1;337;1.54593586921692E-08;-4.59912419319153E-08;100 nA
-0.1025390625;14.0434729645436;1.580810546875E-09;-0.10235595703125;1;338;1.54593586921692E-08;-4.59912419319153E-08;100 nA
-0.10009765625;14.067886964482;1.5533447265625E-09;-0.0999755859375;1;339;1.54593586921692E-08;-4.59912419319153E-08;100 nA
-0.09765625;14.0923009644204;1.2176513671875E-09;-0.09747314453125;1;340;1.54593586921692E-08;-4.59912419319153E-08;100 nA
-0.09521484375;14.1167149643587;1.84326171875E-09;-0.09503173828125;1;341;1.54593586921692E-08;-4.59912419319153E-08;100 nA
-0.0927734375;14.1411289642971;1.2237548828125E-09;-0.09259033203125;1;342;1.54593586921692E-08;-4.59912419319153E-08;100 nA
-0.09033203125;14.1655429642354;1.7242431640625E-09;-0.090179443359375;1;343;1.54593586921692E-08;-4.59912419319153E-08;100 nA
-0.087890625;14.1899569641738;1.3641357421875E-09;-0.087677001953125;1;344;1.54593586921692E-08;-4.59912419319153E-08;100 nA
-0.08544921875;14.2143709641122;1.5228271484375E-09;-0.0853271484375;1;345;1.54593586921692E-08;-4.59912419319153E-08;100 nA
-0.0830078125;14.2387849640505;1.4801025390625E-09;-0.08282470703125;1;346;1.54593586921692E-08;-4.59912419319153E-08;100 nA
-0.08056640625;14.2631989639889;1.7608642578125E-09;-0.080413818359375;1;347;1.54593586921692E-08;-4.59912419319153E-08;100 nA
-0.078125;14.2876129639272;1.5380859375E-09;-0.077972412109375;1;348;1.54593586921692E-08;-4.59912419319153E-08;100 nA
-0.07568359375;14.3120269638656;1.72119140625E-09;-0.075592041015625;1;349;1.54593586921692E-08;-4.59912419319153E-08;100 nA
-0.0732421875;14.336440963804;1.4739990234375E-09;-0.073089599609375;1;350;1.54593586921692E-08;-4.59912419319153E-08;100 nA
-0.07080078125;14.3608549637423;1.9012451171875E-09;-0.070648193359375;1;351;1.54593586921692E-08;-4.59912419319153E-08;100 nA
-0.068359375;14.3852689636807;1.3336181640625E-09;-0.06817626953125;1;352;1.54593586921692E-08;-4.59912419319153E-08;100 nA
-0.06591796875;14.409682963619;1.2451171875E-09;-0.0657958984375;1;353;1.54593586921692E-08;-4.59912419319153E-08;100 nA
-0.0634765625;14.4340969635574;1.5350341796875E-09;-0.0633544921875;1;354;1.54593586921692E-08;-4.59912419319153E-08;100 nA
-0.06103515625;14.4585109634958;1.397705078125E-09;-0.060943603515625;1;355;1.54593586921692E-08;-4.59912419319153E-08;100 nA
-0.05859375;14.4829249634341;1.72119140625E-09;-0.058441162109375;1;356;1.54593586921692E-08;-4.59912419319153E-08;100 nA
-0.05615234375;14.5073389633725;1.3458251953125E-09;-0.0560302734375;1;357;1.54593586921692E-08;-4.59912419319153E-08;100 nA
-0.0537109375;14.5317529633109;1.666259765625E-09;-0.0535888671875;1;358;1.54593586921692E-08;-4.59912419319153E-08;100 nA
-0.05126953125;14.5561669632492;1.6448974609375E-09;-0.051116943359375;1;359;1.54593586921692E-08;-4.59912419319153E-08;100 nA
-0.048828125;14.5805809631876;1.702880859375E-09;-0.048651123046875;1;360;1.54593586921692E-08;-4.59912419319153E-08;100 nA
-0.04638671875;14.6049949631259;1.336669921875E-09;-0.0462188720703125;1;361;1.54593586921692E-08;-4.59912419319153E-08;100 nA
-0.0439453125;14.6294089630643;1.7303466796875E-09;-0.0437896728515625;1;362;1.54593586921692E-08;-4.59912419319153E-08;100 nA
-0.04150390625;14.6538229630027;1.7913818359375E-09;-0.041357421875;1;363;1.54593586921692E-08;-4.59912419319153E-08;100 nA
-0.0390625;14.678236962941;1.8524169921875E-09;-0.0389007568359375;1;364;1.54593586921692E-08;-4.59912419319153E-08;100 nA
-0.03662109375;14.7026509628794;1.458740234375E-09;-0.036468505859375;1;365;1.54593586921692E-08;-4.59912419319153E-08;100 nA
-0.0341796875;14.7270649628177;1.7303466796875E-09;-0.0340118408203125;1;366;1.54593586921692E-08;-4.59912419319153E-08;100 nA
-0.03173828125;14.7514789627561;1.46484375E-09;-0.031573486328125;1;367;1.54593586921692E-08;-4.59912419319153E-08;100 nA
-0.029296875;14.7758929626945;1.5380859375E-09;-0.029119873046875;1;368;1.54593586921692E-08;-4.59912419319153E-08;100 nA
-0.02685546875;14.8003069626328;1.8157958984375E-09;-0.0267120361328125;1;369;1.54593586921692E-08;-4.59912419319153E-08;100 nA
-0.0244140625;14.8247209625712;1.6876220703125E-09;-0.024261474609375;1;370;1.54593586921692E-08;-4.59912419319153E-08;100 nA
-0.02197265625;14.8491349625095;1.763916015625E-09;-0.021826171875;1;371;1.54593586921692E-08;-4.59912419319153E-08;100 nA
-0.01953125;14.8735489624479;1.7486572265625E-09;-0.019403076171875;1;372;1.54593586921692E-08;-4.59912419319153E-08;100 nA
-0.01708984375;14.8979629623863;2.0294189453125E-09;-0.0169403076171875;1;373;1.54593586921692E-08;-4.59912419319153E-08;100 nA
-0.0146484375;14.9223769623246;1.8524169921875E-09;-0.014508056640625;1;374;1.54593586921692E-08;-4.59912419319153E-08;100 nA
-0.01220703125;14.946790962263;1.788330078125E-09;-0.012078857421875;1;375;1.54593586921692E-08;-4.59912419319153E-08;100 nA
-0.009765625;14.9712049622013;1.678466796875E-09;-0.0096435546875;1;376;1.54593586921692E-08;-4.59912419319153E-08;100 nA
-0.00732421875;14.9956189621397;2.008056640625E-09;-0.00718078613281251;1;377;1.54593586921692E-08;-4.59912419319153E-08;100 nA
-0.0048828125;15.0200329620781;2.0294189453125E-09;-0.004779052734375;1;378;1.54593586921692E-08;-4.59912419319153E-08;100 nA
-0.00244140625;15.0444469620164;1.8768310546875E-09;-0.0023345947265625;1;379;1.54593586921692E-08;-4.59912419319153E-08;100 nA
0;15.0688609619548;1.739501953125E-09;0.000125122070312497;1;380;1.54593586921692E-08;-4.59912419319153E-08;100 nA
