Potential applied (V);Time (s);WE(1).Current (A);WE(1).Potential (V);Scan;Index;Q+;Q-;Current range
0.00244140625;5.75195198547772;2.7587890625E-09;0.00261535644531249;1;1;2.59552150964737E-08;-5.19879907369613E-08;100 nA
0.0048828125;5.77636598541608;1.4556884765625E-09;0.0050628662109375;1;2;2.59552150964737E-08;-5.19879907369613E-08;100 nA
0.00732421875;5.80077998535444;2.60009765625E-09;0.007525634765625;1;3;2.59552150964737E-08;-5.19879907369613E-08;100 nA
0.009765625;5.8251939852928;1.15966796875E-10;0.0099334716796875;1;4;2.59552150964737E-08;-5.19879907369613E-08;100 nA
0.01220703125;5.84960798523116;4.98046875E-09;0.012384033203125;1;5;2.59552150964737E-08;-5.19879907369613E-08;100 nA
0.009765625;5.87402198516952;-1.0284423828125E-09;0.0099334716796875;1;6;2.59552150964737E-08;-5.19879907369613E-08;100 nA
0.00732421875;5.89843598510788;2.069091796875E-09;0.00750122070312501;1;7;2.59552150964737E-08;-5.19879907369613E-08;100 nA
0.0048828125;5.92284998504624;-7.781982421875E-10;0.0050537109375;1;8;2.59552150964737E-08;-5.19879907369613E-08;100 nA
0.00244140625;5.9472639849846;-1.3458251953125E-09;0.00261535644531249;1;9;2.59552150964737E-08;-5.19879907369613E-08;100 nA
0;5.97167798492296;5.157470703125E-10;0.000186157226562497;1;10;2.59552150964737E-08;-5.19879907369613E-08;100 nA
-0.00244140625;5.99609198486132;-1.1505126953125E-09;-0.00223693847656251;1;11;2.59552150964737E-08;-5.19879907369613E-08;100 nA
-0.0048828125;6.02050598479968;-2.0355224609375E-09;-0.004681396484375;1;12;2.59552150964737E-08;-5.19879907369613E-08;100 nA
-0.00732421875;6.04491998473804;-1.708984375E-09;-0.00713195800781249;1;13;2.59552150964737E-08;-5.19879907369613E-08;100 nA
-0.009765625;6.0693339846764;1.3763427734375E-09;-0.0095703125;1;14;2.59552150964737E-08;-5.19879907369613E-08;100 nA
-0.01220703125;6.09374798461477;-3.1097412109375E-09;-0.0120147705078125;1;15;2.59552150964737E-08;-5.19879907369613E-08;100 nA
-0.0146484375;6.11816198455313;-1.0009765625E-09;-0.014434814453125;1;16;2.59552150964737E-08;-5.19879907369613E-08;100 nA
-0.01708984375;6.14257598449149;-2.0233154296875E-09;-0.01688232421875;1;17;2.59552150964737E-08;-5.19879907369613E-08;100 nA
-0.01953125;6.16698998442985;-1.3427734375E-10;-0.019317626953125;1;18;2.59552150964737E-08;-5.19879907369613E-08;100 nA
-0.02197265625;6.19140398436821;-4.72412109375E-09;-0.0217529296875;1;19;2.59552150964737E-08;-5.19879907369613E-08;100 nA
-0.0244140625;6.21581798430657;9.552001953125E-10;-0.024200439453125;1;20;2.59552150964737E-08;-5.19879907369613E-08;100 nA
-0.02685546875;6.24023198424493;-3.9093017578125E-09;-0.0266448974609375;1;21;2.59552150964737E-08;-5.19879907369613E-08;100 nA
-0.029296875;6.26464598418329;-8.9111328125E-10;-0.029095458984375;1;22;2.59552150964737E-08;-5.19879907369613E-08;100 nA
-0.03173828125;6.28905998412165;-2.2796630859375E-09;-0.03150634765625;1;23;2.59552150964737E-08;-5.19879907369613E-08;100 nA
-0.0341796875;6.31347398406001;-4.77294921875E-09;-0.033935546875;1;24;2.59552150964737E-08;-5.19879907369613E-08;100 nA
-0.03662109375;6.33788798399837;-2.4658203125E-09;-0.0363861083984375;1;25;2.59552150964737E-08;-5.19879907369613E-08;100 nA
-0.0390625;6.36230198393673;-1.763916015625E-09;-0.038836669921875;1;26;2.59552150964737E-08;-5.19879907369613E-08;100 nA
-0.04150390625;6.38671598387509;-2.984619140625E-09;-0.041290283203125;1;27;2.59552150964737E-08;-5.19879907369613E-08;100 nA
-0.0439453125;6.41112998381345;-4.7271728515625E-09;-0.04371337890625;1;28;2.59552150964737E-08;-5.19879907369613E-08;100 nA
-0.04638671875;6.43554398375181;-2.50244140625E-10;-0.0461669921875;1;29;2.59552150964737E-08;-5.19879907369613E-08;100 nA
-0.048828125;6.45995798369017;-3.64990234375E-09;-0.048614501953125;1;30;2.59552150964737E-08;-5.19879907369613E-08;100 nA
-0.05126953125;6.48437198362853;-2.783203125E-09;-0.05108642578125;1;31;2.59552150964737E-08;-5.19879907369613E-08;100 nA
-0.0537109375;6.5087859835669;-4.0985107421875E-09;-0.053466796875;1;32;2.59552150964737E-08;-5.19879907369613E-08;100 nA
-0.05615234375;6.53319998350526;-5.645751953125E-10;-0.055999755859375;1;33;2.59552150964737E-08;-5.19879907369613E-08;100 nA
-0.05859375;6.55761398344362;-6.0760498046875E-09;-0.058441162109375;1;34;2.59552150964737E-08;-5.19879907369613E-08;100 nA
-0.06103515625;6.58202798338198;-7.476806640625E-10;-0.060821533203125;1;35;2.59552150964737E-08;-5.19879907369613E-08;100 nA
-0.0634765625;6.60644198332034;-5.0018310546875E-09;-0.06329345703125;1;36;2.59552150964737E-08;-5.19879907369613E-08;100 nA
-0.06591796875;6.6308559832587;-2.9296875E-09;-0.065673828125;1;37;2.59552150964737E-08;-5.19879907369613E-08;100 nA
-0.068359375;6.65526998319706;-1.9775390625E-09;-0.068115234375;1;38;2.59552150964737E-08;-5.19879907369613E-08;100 nA
-0.07080078125;6.67968398313542;-4.638671875E-09;-0.070556640625;1;39;2.59552150964737E-08;-5.19879907369613E-08;100 nA
-0.0732421875;6.70409798307378;-4.156494140625E-09;-0.073028564453125;1;40;2.59552150964737E-08;-5.19879907369613E-08;100 nA
-0.07568359375;6.72851198301214;-3.082275390625E-09;-0.07537841796875;1;41;2.59552150964737E-08;-5.19879907369613E-08;100 nA
-0.078125;6.7529259829505;-2.0477294921875E-09;-0.077911376953125;1;42;2.59552150964737E-08;-5.19879907369613E-08;100 nA
-0.08056640625;6.77733998288886;-6.1431884765625E-09;-0.080413818359375;1;43;2.59552150964737E-08;-5.19879907369613E-08;100 nA
-0.0830078125;6.80175398282722;-1.8280029296875E-09;-0.082733154296875;1;44;2.59552150964737E-08;-5.19879907369613E-08;100 nA
-0.08544921875;6.82616798276558;-3.67431640625E-09;-0.085205078125;1;45;2.59552150964737E-08;-5.19879907369613E-08;100 nA
-0.087890625;6.85058198270394;-2.6458740234375E-09;-0.087677001953125;1;46;2.59552150964737E-08;-5.19879907369613E-08;100 nA
-0.09033203125;6.8749959826423;-5.572509765625E-09;-0.090118408203125;1;47;2.59552150964737E-08;-5.19879907369613E-08;100 nA
-0.0927734375;6.89940998258066;-4.57763671875E-10;-0.092498779296875;1;48;2.59552150964737E-08;-5.19879907369613E-08;100 nA
-0.09521484375;6.92382398251902;-6.0699462890625E-09;-0.094970703125;1;49;2.59552150964737E-08;-5.19879907369613E-08;100 nA
-0.09765625;6.94823798245739;-1.666259765625E-09;-0.097442626953125;1;50;2.59552150964737E-08;-5.19879907369613E-08;100 nA
-0.10009765625;6.97265198239575;-4.9224853515625E-09;-0.099884033203125;1;51;2.59552150964737E-08;-5.19879907369613E-08;100 nA
-0.1025390625;6.99706598233411;-4.35791015625E-09;-0.10223388671875;1;52;2.59552150964737E-08;-5.19879907369613E-08;100 nA
-0.10498046875;7.02147998227247;-2.825927734375E-09;-0.10479736328125;1;53;2.59552150964737E-08;-5.19879907369613E-08;100 nA
-0.107421875;7.04589398221083;-4.168701171875E-09;-0.107177734375;1;54;2.59552150964737E-08;-5.19879907369613E-08;100 nA
-0.10986328125;7.07030798214919;-4.7882080078125E-09;-0.109588623046875;1;55;2.59552150964737E-08;-5.19879907369613E-08;100 nA
-0.1123046875;7.09472198208755;-4.3182373046875E-09;-0.112030029296875;1;56;2.59552150964737E-08;-5.19879907369613E-08;100 nA
-0.11474609375;7.11913598202591;-1.57470703125E-09;-0.114501953125;1;57;2.59552150964737E-08;-5.19879907369613E-08;100 nA
-0.1171875;7.14354998196427;-5.322265625E-09;-0.116973876953125;1;58;2.59552150964737E-08;-5.19879907369613E-08;100 nA
-0.11962890625;7.16796398190263;-2.8594970703125E-09;-0.11932373046875;1;59;2.59552150964737E-08;-5.19879907369613E-08;100 nA
-0.1220703125;7.19237798184099;-4.5166015625E-09;-0.121856689453125;1;60;2.59552150964737E-08;-5.19879907369613E-08;100 nA
-0.12451171875;7.21679198177935;-2.6214599609375E-09;-0.124267578125;1;61;2.59552150964737E-08;-5.19879907369613E-08;100 nA
-0.126953125;7.24120598171771;-6.28662109375E-09;-0.126678466796875;1;62;2.59552150964737E-08;-5.19879907369613E-08;100 nA
-0.12939453125;7.26561998165607;-1.4984130859375E-09;-0.129150390625;1;63;2.59552150964737E-08;-5.19879907369613E-08;100 nA
-0.1318359375;7.29003398159443;-6.353759765625E-09;-0.131561279296875;1;64;2.59552150964737E-08;-5.19879907369613E-08;100 nA
-0.13427734375;7.31444798153279;-2.880859375E-09;-0.133941650390625;1;65;2.59552150964737E-08;-5.19879907369613E-08;100 nA
-0.13671875;7.33886198147115;-4.7119140625E-09;-0.13641357421875;1;66;2.59552150964737E-08;-5.19879907369613E-08;100 nA
-0.13916015625;7.36327598140952;-6.1981201171875E-09;-0.138824462890625;1;67;2.59552150964737E-08;-5.19879907369613E-08;100 nA
-0.1416015625;7.38768998134788;-4.3365478515625E-09;-0.141326904296875;1;68;2.59552150964737E-08;-5.19879907369613E-08;100 nA
-0.14404296875;7.41210398128624;-4.0802001953125E-09;-0.143707275390625;1;69;2.59552150964737E-08;-5.19879907369613E-08;100 nA
-0.146484375;7.4365179812246;-4.8004150390625E-09;-0.146240234375;1;70;2.59552150964737E-08;-5.19879907369613E-08;100 nA
-0.14892578125;7.46093198116296;-6.3568115234375E-09;-0.148651123046875;1;71;2.59552150964737E-08;-5.19879907369613E-08;100 nA
-0.1513671875;7.48534598110132;-1.4495849609375E-09;-0.151031494140625;1;72;2.59552150964737E-08;-5.19879907369613E-08;100 nA
-0.15380859375;7.50975998103968;-5.45654296875E-09;-0.15350341796875;1;73;2.59552150964737E-08;-5.19879907369613E-08;100 nA
-0.15625;7.53417398097804;-4.0130615234375E-09;-0.155914306640625;1;74;2.59552150964737E-08;-5.19879907369613E-08;100 nA
-0.15869140625;7.5585879809164;-5.413818359375E-09;-0.158355712890625;1;75;2.59552150964737E-08;-5.19879907369613E-08;100 nA
-0.1611328125;7.58300198085476;-2.093505859375E-09;-0.160858154296875;1;76;2.59552150964737E-08;-5.19879907369613E-08;100 nA
-0.16357421875;7.60741598079312;-7.4066162109375E-09;-0.16326904296875;1;77;2.59552150964737E-08;-5.19879907369613E-08;100 nA
-0.166015625;7.63182998073148;-1.84326171875E-09;-0.165679931640625;1;78;2.59552150964737E-08;-5.19879907369613E-08;100 nA
-0.16845703125;7.65624398066984;-6.4178466796875E-09;-0.168121337890625;1;79;2.59552150964737E-08;-5.19879907369613E-08;100 nA
-0.1708984375;7.6806579806082;-4.7149658203125E-09;-0.17059326171875;1;80;2.59552150964737E-08;-5.19879907369613E-08;100 nA
-0.17333984375;7.70507198054656;-3.9459228515625E-09;-0.173065185546875;1;81;2.59552150964737E-08;-5.19879907369613E-08;100 nA
-0.17578125;7.72948598048492;-6.207275390625E-09;-0.175445556640625;1;82;2.59552150964737E-08;-5.19879907369613E-08;100 nA
-0.17822265625;7.75389998042328;-5.09033203125E-09;-0.177947998046875;1;83;2.59552150964737E-08;-5.19879907369613E-08;100 nA
-0.1806640625;7.77831398036165;-4.1534423828125E-09;-0.180328369140625;1;84;2.59552150964737E-08;-5.19879907369613E-08;100 nA
-0.18310546875;7.80272798030001;-3.6346435546875E-09;-0.182769775390625;1;85;2.59552150964737E-08;-5.19879907369613E-08;100 nA
-0.185546875;7.82714198023837;-7.3760986328125E-09;-0.18524169921875;1;86;2.59552150964737E-08;-5.19879907369613E-08;100 nA
-0.18798828125;7.85155598017673;-3.0792236328125E-09;-0.1876220703125;1;87;2.59552150964737E-08;-5.19879907369613E-08;100 nA
-0.1904296875;7.87596998011509;-5.1727294921875E-09;-0.1900634765625;1;88;2.59552150964737E-08;-5.19879907369613E-08;100 nA
-0.19287109375;7.90038398005345;-3.7841796875E-09;-0.192474365234375;1;89;2.59552150964737E-08;-5.19879907369613E-08;100 nA
-0.1953125;7.92479797999181;-6.2896728515625E-09;-0.19500732421875;1;90;2.59552150964737E-08;-5.19879907369613E-08;100 nA
-0.19775390625;7.94921197993017;-2.23388671875E-09;-0.19744873046875;1;91;2.59552150964737E-08;-5.19879907369613E-08;100 nA
-0.2001953125;7.97362597986853;-7.879638671875E-09;-0.199859619140625;1;92;2.59552150964737E-08;-5.19879907369613E-08;100 nA
-0.20263671875;7.99803997980689;-2.6885986328125E-09;-0.202301025390625;1;93;2.59552150964737E-08;-5.19879907369613E-08;100 nA
-0.205078125;8.02245397974525;-6.4208984375E-09;-0.204742431640625;1;94;2.59552150964737E-08;-5.19879907369613E-08;100 nA
-0.20751953125;8.04686797968361;-5.535888671875E-09;-0.207183837890625;1;95;2.59552150964737E-08;-5.19879907369613E-08;100 nA
-0.2099609375;8.07128197962197;-3.77197265625E-09;-0.209625244140625;1;96;2.59552150964737E-08;-5.19879907369613E-08;100 nA
-0.21240234375;8.09569597956033;-5.780029296875E-09;-0.212066650390625;1;97;2.59552150964737E-08;-5.19879907369613E-08;100 nA
-0.21484375;8.12010997949869;-6.451416015625E-09;-0.2144775390625;1;98;2.59552150964737E-08;-5.19879907369613E-08;100 nA
-0.21728515625;8.14452397943705;-5.438232421875E-09;-0.2169189453125;1;99;2.59552150964737E-08;-5.19879907369613E-08;100 nA
-0.2197265625;8.16893797937541;-3.25927734375E-09;-0.21942138671875;1;100;2.59552150964737E-08;-5.19879907369613E-08;100 nA
-0.22216796875;8.19335197931377;-7.36083984375E-09;-0.22186279296875;1;101;2.59552150964737E-08;-5.19879907369613E-08;100 nA
-0.224609375;8.21776597925214;-4.8614501953125E-09;-0.2242431640625;1;102;2.59552150964737E-08;-5.19879907369613E-08;100 nA
-0.22705078125;8.2421799791905;-6.2408447265625E-09;-0.2266845703125;1;103;2.59552150964737E-08;-5.19879907369613E-08;100 nA
-0.2294921875;8.26659397912886;-4.2877197265625E-09;-0.22918701171875;1;104;2.59552150964737E-08;-5.19879907369613E-08;100 nA
-0.23193359375;8.29100797906722;-8.55712890625E-09;-0.231597900390625;1;105;2.59552150964737E-08;-5.19879907369613E-08;100 nA
-0.234375;8.31542197900558;-3.3416748046875E-09;-0.23406982421875;1;106;2.59552150964737E-08;-5.19879907369613E-08;100 nA
-0.23681640625;8.33983597894394;-8.502197265625E-09;-0.236419677734375;1;107;2.59552150964737E-08;-5.19879907369613E-08;100 nA
-0.2392578125;8.3642499788823;-5.0018310546875E-09;-0.238922119140625;1;108;2.59552150964737E-08;-5.19879907369613E-08;100 nA
-0.24169921875;8.38866397882066;-7.14111328125E-09;-0.2413330078125;1;109;2.59552150964737E-08;-5.19879907369613E-08;100 nA
-0.244140625;8.41307797875902;-8.4808349609375E-09;-0.243804931640625;1;110;2.59552150964737E-08;-5.19879907369613E-08;100 nA
-0.24658203125;8.43749197869738;-6.87255859375E-09;-0.2462158203125;1;111;2.59552150964737E-08;-5.19879907369613E-08;100 nA
-0.2490234375;8.46190597863574;-7.4615478515625E-09;-0.248626708984375;1;112;2.59552150964737E-08;-5.19879907369613E-08;100 nA
-0.25146484375;8.4863199785741;-8.9080810546875E-09;-0.2510986328125;1;113;2.59552150964737E-08;-5.19879907369613E-08;100 nA
-0.25390625;8.51073397851246;-1.00738525390625E-08;-0.253509521484375;1;114;2.59552150964737E-08;-5.19879907369613E-08;100 nA
-0.25634765625;8.53514797845082;-6.402587890625E-09;-0.25592041015625;1;115;2.59552150964737E-08;-5.19879907369613E-08;100 nA
-0.2587890625;8.55956197838918;-1.109619140625E-08;-0.2584228515625;1;116;2.59552150964737E-08;-5.19879907369613E-08;100 nA
-0.26123046875;8.58397597832754;-1.0040283203125E-08;-0.26080322265625;1;117;2.59552150964737E-08;-5.19879907369613E-08;100 nA
-0.263671875;8.6083899782659;-1.23016357421875E-08;-0.263214111328125;1;118;2.59552150964737E-08;-5.19879907369613E-08;100 nA
-0.26611328125;8.63280397820427;-1.0009765625E-08;-0.2657470703125;1;119;2.59552150964737E-08;-5.19879907369613E-08;100 nA
-0.2685546875;8.65721797814263;-1.64306640625E-08;-0.26812744140625;1;120;2.59552150964737E-08;-5.19879907369613E-08;100 nA
-0.27099609375;8.68163197808099;-1.18408203125E-08;-0.270599365234375;1;121;2.59552150964737E-08;-5.19879907369613E-08;100 nA
-0.2734375;8.70604597801935;-1.84478759765625E-08;-0.273040771484375;1;122;2.59552150964737E-08;-5.19879907369613E-08;100 nA
-0.27587890625;8.73045997795771;-1.654052734375E-08;-0.27545166015625;1;123;2.59552150964737E-08;-5.19879907369613E-08;100 nA
-0.2783203125;8.75487397789607;-1.81884765625E-08;-0.27789306640625;1;124;2.59552150964737E-08;-5.19879907369613E-08;100 nA
-0.28076171875;8.77928797783443;-2.18505859375E-08;-0.28033447265625;1;125;2.59552150964737E-08;-5.19879907369613E-08;100 nA
-0.283203125;8.80370197777279;-2.3468017578125E-08;-0.28277587890625;1;126;2.59552150964737E-08;-5.19879907369613E-08;100 nA
-0.28564453125;8.82811597771115;-2.410888671875E-08;-0.28515625;1;127;2.59552150964737E-08;-5.19879907369613E-08;100 nA
-0.2880859375;8.85252997764951;-2.587890625E-08;-0.287689208984375;1;128;2.59552150964737E-08;-5.19879907369613E-08;100 nA
-0.29052734375;8.87694397758787;-3.0975341796875E-08;-0.2901611328125;1;129;2.59552150964737E-08;-5.19879907369613E-08;100 nA
-0.29296875;8.90135797752623;-2.9815673828125E-08;-0.292572021484375;1;130;2.59552150964737E-08;-5.19879907369613E-08;100 nA
-0.29541015625;8.92577197746459;-3.240966796875E-08;-0.2950439453125;1;131;2.59552150964737E-08;-5.19879907369613E-08;100 nA
-0.2978515625;8.95018597740295;-3.497314453125E-08;-0.29742431640625;1;132;2.59552150964737E-08;-5.19879907369613E-08;100 nA
-0.30029296875;8.97459997734131;-3.717041015625E-08;-0.2998046875;1;133;2.59552150964737E-08;-5.19879907369613E-08;100 nA
-0.302734375;8.99901397727967;-3.5400390625E-08;-0.3023681640625;1;134;2.59552150964737E-08;-5.19879907369613E-08;100 nA
-0.30517578125;9.02342797721803;-3.997802734375E-08;-0.3046875;1;135;2.59552150964737E-08;-5.19879907369613E-08;100 nA
-0.3076171875;9.04784197715639;-3.72314453125E-08;-0.307159423828125;1;136;2.59552150964737E-08;-5.19879907369613E-08;100 nA
-0.31005859375;9.07225597709476;-3.9093017578125E-08;-0.30963134765625;1;137;2.59552150964737E-08;-5.19879907369613E-08;100 nA
-0.3125;9.09666997703312;-3.82080078125E-08;-0.31201171875;1;138;2.59552150964737E-08;-5.19879907369613E-08;100 nA
-0.31494140625;9.12108397697148;-3.4820556640625E-08;-0.314453125;1;139;2.59552150964737E-08;-5.19879907369613E-08;100 nA
-0.3173828125;9.14549797690984;-3.52783203125E-08;-0.31695556640625;1;140;2.59552150964737E-08;-5.19879907369613E-08;100 nA
-0.31982421875;9.1699119768482;-3.4027099609375E-08;-0.319488525390625;1;141;2.59552150964737E-08;-5.19879907369613E-08;100 nA
-0.322265625;9.19432597678656;-3.045654296875E-08;-0.321807861328125;1;142;2.59552150964737E-08;-5.19879907369613E-08;100 nA
-0.32470703125;9.21873997672492;-2.679443359375E-08;-0.324249267578125;1;143;2.59552150964737E-08;-5.19879907369613E-08;100 nA
-0.3271484375;9.24315397666328;-2.8076171875E-08;-0.3267822265625;1;144;2.59552150964737E-08;-5.19879907369613E-08;100 nA
-0.32958984375;9.26756797660164;-2.392578125E-08;-0.3291015625;1;145;2.59552150964737E-08;-5.19879907369613E-08;100 nA
-0.33203125;9.29198197654;-2.16064453125E-08;-0.33160400390625;1;146;2.59552150964737E-08;-5.19879907369613E-08;100 nA
-0.33447265625;9.31639597647836;-1.9439697265625E-08;-0.3341064453125;1;147;2.59552150964737E-08;-5.19879907369613E-08;100 nA
-0.3369140625;9.34080997641672;-2.069091796875E-08;-0.336456298828125;1;148;2.59552150964737E-08;-5.19879907369613E-08;100 nA
-0.33935546875;9.36522397635508;-1.3885498046875E-08;-0.33892822265625;1;149;2.59552150964737E-08;-5.19879907369613E-08;100 nA
-0.341796875;9.38963797629344;-1.8133544921875E-08;-0.34136962890625;1;150;2.59552150964737E-08;-5.19879907369613E-08;100 nA
-0.34423828125;9.4140519762318;-1.3031005859375E-08;-0.343780517578125;1;151;2.59552150964737E-08;-5.19879907369613E-08;100 nA
-0.3466796875;9.43846597617016;-1.39190673828125E-08;-0.34619140625;1;152;2.59552150964737E-08;-5.19879907369613E-08;100 nA
-0.34912109375;9.46287997610852;-1.3946533203125E-08;-0.348663330078125;1;153;2.59552150964737E-08;-5.19879907369613E-08;100 nA
-0.3515625;9.48729397604689;-1.12396240234375E-08;-0.351104736328125;1;154;2.59552150964737E-08;-5.19879907369613E-08;100 nA
-0.35400390625;9.51170797598525;-1.14990234375E-08;-0.353546142578125;1;155;2.59552150964737E-08;-5.19879907369613E-08;100 nA
-0.3564453125;9.53612197592361;-1.22528076171875E-08;-0.356048583984375;1;156;2.59552150964737E-08;-5.19879907369613E-08;100 nA
-0.35888671875;9.56053597586197;-1.2298583984375E-08;-0.358428955078125;1;157;2.59552150964737E-08;-5.19879907369613E-08;100 nA
-0.361328125;9.58494997580033;-7.806396484375E-09;-0.36090087890625;1;158;2.59552150964737E-08;-5.19879907369613E-08;100 nA
-0.36376953125;9.60936397573869;-1.158447265625E-08;-0.3634033203125;1;159;2.59552150964737E-08;-5.19879907369613E-08;100 nA
-0.3662109375;9.63377797567705;-1.0076904296875E-08;-0.3658447265625;1;160;2.59552150964737E-08;-5.19879907369613E-08;100 nA
-0.36865234375;9.65819197561541;-1.10870361328125E-08;-0.3681640625;1;161;2.59552150964737E-08;-5.19879907369613E-08;100 nA
-0.37109375;9.68260597555377;-8.4014892578125E-09;-0.37066650390625;1;162;2.59552150964737E-08;-5.19879907369613E-08;100 nA
-0.37353515625;9.70701997549213;-1.307373046875E-08;-0.373046875;1;163;2.59552150964737E-08;-5.19879907369613E-08;100 nA
-0.3759765625;9.73143397543049;-7.354736328125E-09;-0.37554931640625;1;164;2.59552150964737E-08;-5.19879907369613E-08;100 nA
-0.37841796875;9.75584797536885;-1.2158203125E-08;-0.37799072265625;1;165;2.59552150964737E-08;-5.19879907369613E-08;100 nA
-0.380859375;9.78026197530721;-9.6099853515625E-09;-0.380462646484375;1;166;2.59552150964737E-08;-5.19879907369613E-08;100 nA
-0.38330078125;9.80467597524557;-9.7869873046875E-09;-0.382843017578125;1;167;2.59552150964737E-08;-5.19879907369613E-08;100 nA
-0.3857421875;9.82908997518393;-1.220703125E-08;-0.38525390625;1;168;2.59552150964737E-08;-5.19879907369613E-08;100 nA
-0.38818359375;9.85350397512229;-1.1273193359375E-08;-0.387725830078125;1;169;2.59552150964737E-08;-5.19879907369613E-08;100 nA
-0.390625;9.87791797506065;-1.0186767578125E-08;-0.39019775390625;1;170;2.59552150964737E-08;-5.19879907369613E-08;100 nA
-0.39306640625;9.90233197499902;-1.0400390625E-08;-0.392608642578125;1;171;2.59552150964737E-08;-5.19879907369613E-08;100 nA
-0.3955078125;9.92674597493738;-1.37237548828125E-08;-0.395050048828125;1;172;2.59552150964737E-08;-5.19879907369613E-08;100 nA
-0.39794921875;9.95115997487574;-8.6669921875E-09;-0.397491455078125;1;173;2.59552150964737E-08;-5.19879907369613E-08;100 nA
-0.400390625;9.9755739748141;-1.21185302734375E-08;-0.399871826171875;1;174;2.59552150964737E-08;-5.19879907369613E-08;100 nA
-0.40283203125;9.99998797475246;-1.0009765625E-08;-0.40234375;1;175;2.59552150964737E-08;-5.19879907369613E-08;100 nA
-0.4052734375;10.0244019746908;-1.3238525390625E-08;-0.404754638671875;1;176;2.59552150964737E-08;-5.19879907369613E-08;100 nA
-0.40771484375;10.0488159746292;-8.30078125E-09;-0.4072265625;1;177;2.59552150964737E-08;-5.19879907369613E-08;100 nA
-0.41015625;10.0732299745675;-1.4398193359375E-08;-0.409637451171875;1;178;2.59552150964737E-08;-5.19879907369613E-08;100 nA
-0.41259765625;10.0976439745059;-9.246826171875E-09;-0.412139892578125;1;179;2.59552150964737E-08;-5.19879907369613E-08;100 nA
-0.4150390625;10.1220579744443;-1.35711669921875E-08;-0.414520263671875;1;180;2.59552150964737E-08;-5.19879907369613E-08;100 nA
-0.41748046875;10.1464719743826;-1.239013671875E-08;-0.416961669921875;1;181;2.59552150964737E-08;-5.19879907369613E-08;100 nA
-0.419921875;10.170885974321;-1.14349365234375E-08;-0.419403076171875;1;182;2.59552150964737E-08;-5.19879907369613E-08;100 nA
-0.42236328125;10.1952999742593;-1.241455078125E-08;-0.421875;1;183;2.59552150964737E-08;-5.19879907369613E-08;100 nA
-0.4248046875;10.2197139741977;-1.52313232421875E-08;-0.42431640625;1;184;2.59552150964737E-08;-5.19879907369613E-08;100 nA
-0.42724609375;10.2441279741361;-1.21337890625E-08;-0.4267578125;1;185;2.59552150964737E-08;-5.19879907369613E-08;100 nA
-0.4296875;10.2685419740744;-1.35498046875E-08;-0.42919921875;1;186;2.59552150964737E-08;-5.19879907369613E-08;100 nA
-0.43212890625;10.2929559740128;-1.57379150390625E-08;-0.431671142578125;1;187;2.59552150964737E-08;-5.19879907369613E-08;100 nA
-0.4345703125;10.3173699739511;-1.220703125E-08;-0.434051513671875;1;188;2.59552150964737E-08;-5.19879907369613E-08;100 nA
-0.43701171875;10.3417839738895;-1.35162353515625E-08;-0.436492919921875;1;189;2.59552150964737E-08;-5.19879907369613E-08;100 nA
-0.439453125;10.3661979738279;-1.26800537109375E-08;-0.438934326171875;1;190;2.59552150964737E-08;-5.19879907369613E-08;100 nA
-0.44189453125;10.3906119737662;-1.66748046875E-08;-0.441375732421875;1;191;2.59552150964737E-08;-5.19879907369613E-08;100 nA
-0.4443359375;10.4150259737046;-1.1016845703125E-08;-0.443878173828125;1;192;2.59552150964737E-08;-5.19879907369613E-08;100 nA
-0.44677734375;10.4394399736429;-1.6845703125E-08;-0.446197509765625;1;193;2.59552150964737E-08;-5.19879907369613E-08;100 nA
-0.44921875;10.4638539735813;-1.3397216796875E-08;-0.44873046875;1;194;2.59552150964737E-08;-5.19879907369613E-08;100 nA
-0.45166015625;10.4882679735197;-1.602783203125E-08;-0.451080322265625;1;195;2.59552150964737E-08;-5.19879907369613E-08;100 nA
-0.44921875;10.512681973458;-1.544189453125E-08;-0.44866943359375;1;196;2.59552150964737E-08;-5.19879907369613E-08;100 nA
-0.44677734375;10.5370959733964;-1.25640869140625E-08;-0.446258544921875;1;197;2.59552150964737E-08;-5.19879907369613E-08;100 nA
-0.4443359375;10.5615099733348;-1.25701904296875E-08;-0.44378662109375;1;198;2.59552150964737E-08;-5.19879907369613E-08;100 nA
-0.44189453125;10.5859239732731;-1.2872314453125E-08;-0.441436767578125;1;199;2.59552150964737E-08;-5.19879907369613E-08;100 nA
-0.439453125;10.6103379732115;-1.28997802734375E-08;-0.438934326171875;1;200;2.59552150964737E-08;-5.19879907369613E-08;100 nA
-0.43701171875;10.6347519731498;-7.659912109375E-09;-0.436492919921875;1;201;2.59552150964737E-08;-5.19879907369613E-08;100 nA
-0.4345703125;10.6591659730882;-1.17034912109375E-08;-0.434112548828125;1;202;2.59552150964737E-08;-5.19879907369613E-08;100 nA
-0.43212890625;10.6835799730266;-9.7900390625E-09;-0.431610107421875;1;203;2.59552150964737E-08;-5.19879907369613E-08;100 nA
-0.4296875;10.7079939729649;-1.02386474609375E-08;-0.42919921875;1;204;2.59552150964737E-08;-5.19879907369613E-08;100 nA
-0.42724609375;10.7324079729033;-5.462646484375E-09;-0.426788330078125;1;205;2.59552150964737E-08;-5.19879907369613E-08;100 nA
-0.4248046875;10.7568219728416;-1.15997314453125E-08;-0.42431640625;1;206;2.59552150964737E-08;-5.19879907369613E-08;100 nA
-0.42236328125;10.78123597278;-5.2490234375E-09;-0.421875;1;207;2.59552150964737E-08;-5.19879907369613E-08;100 nA
-0.419921875;10.8056499727184;-1.0211181640625E-08;-0.419403076171875;1;208;2.59552150964737E-08;-5.19879907369613E-08;100 nA
-0.41748046875;10.8300639726567;-6.787109375E-09;-0.417022705078125;1;209;2.59552150964737E-08;-5.19879907369613E-08;100 nA
-0.4150390625;10.8544779725951;-7.0831298828125E-09;-0.41455078125;1;210;2.59552150964737E-08;-5.19879907369613E-08;100 nA
-0.41259765625;10.8788919725334;-8.94775390625E-09;-0.412109375;1;211;2.59552150964737E-08;-5.19879907369613E-08;100 nA
-0.41015625;10.9033059724718;-7.366943359375E-09;-0.40966796875;1;212;2.59552150964737E-08;-5.19879907369613E-08;100 nA
-0.40771484375;10.9277199724102;-6.11572265625E-09;-0.40716552734375;1;213;2.59552150964737E-08;-5.19879907369613E-08;100 nA
-0.4052734375;10.9521339723485;-5.8868408203125E-09;-0.40478515625;1;214;2.59552150964737E-08;-5.19879907369613E-08;100 nA
-0.40283203125;10.9765479722869;-8.9996337890625E-09;-0.402374267578125;1;215;2.59552150964737E-08;-5.19879907369613E-08;100 nA
-0.400390625;11.0009619722252;-3.875732421875E-09;-0.399932861328125;1;216;2.59552150964737E-08;-5.19879907369613E-08;100 nA
-0.39794921875;11.0253759721636;-5.99365234375E-09;-0.39752197265625;1;217;2.59552150964737E-08;-5.19879907369613E-08;100 nA
-0.3955078125;11.049789972102;-5.0262451171875E-09;-0.39501953125;1;218;2.59552150964737E-08;-5.19879907369613E-08;100 nA
-0.39306640625;11.0742039720403;-6.4178466796875E-09;-0.392547607421875;1;219;2.59552150964737E-08;-5.19879907369613E-08;100 nA
-0.390625;11.0986179719787;-2.4871826171875E-09;-0.39019775390625;1;220;2.59552150964737E-08;-5.19879907369613E-08;100 nA
-0.38818359375;11.123031971917;-7.43408203125E-09;-0.387664794921875;1;221;2.59552150964737E-08;-5.19879907369613E-08;100 nA
-0.3857421875;11.1474459718554;-2.1820068359375E-09;-0.385284423828125;1;222;2.59552150964737E-08;-5.19879907369613E-08;100 nA
-0.38330078125;11.1718599717938;-5.6182861328125E-09;-0.382843017578125;1;223;2.59552150964737E-08;-5.19879907369613E-08;100 nA
-0.380859375;11.1962739717321;-4.095458984375E-09;-0.38037109375;1;224;2.59552150964737E-08;-5.19879907369613E-08;100 nA
-0.37841796875;11.2206879716705;-3.057861328125E-09;-0.3779296875;1;225;2.59552150964737E-08;-5.19879907369613E-08;100 nA
-0.3759765625;11.2451019716088;-4.4952392578125E-09;-0.37548828125;1;226;2.59552150964737E-08;-5.19879907369613E-08;100 nA
-0.37353515625;11.2695159715472;-4.156494140625E-09;-0.373138427734375;1;227;2.59552150964737E-08;-5.19879907369613E-08;100 nA
-0.37109375;11.2939299714856;-2.838134765625E-09;-0.370635986328125;1;228;2.59552150964737E-08;-5.19879907369613E-08;100 nA
-0.36865234375;11.3183439714239;-9.552001953125E-10;-0.368255615234375;1;229;2.59552150964737E-08;-5.19879907369613E-08;100 nA
-0.3662109375;11.3427579713623;-4.57763671875E-09;-0.365814208984375;1;230;2.59552150964737E-08;-5.19879907369613E-08;100 nA
-0.36376953125;11.3671719713006;-1.025390625E-09;-0.363311767578125;1;231;2.59552150964737E-08;-5.19879907369613E-08;100 nA
-0.361328125;11.391585971239;-2.166748046875E-09;-0.36090087890625;1;232;2.59552150964737E-08;-5.19879907369613E-08;100 nA
-0.35888671875;11.4159999711774;-6.622314453125E-10;-0.358551025390625;1;233;2.59552150964737E-08;-5.19879907369613E-08;100 nA
-0.3564453125;11.4404139711157;-3.1402587890625E-09;-0.35601806640625;1;234;2.59552150964737E-08;-5.19879907369613E-08;100 nA
-0.35400390625;11.4648279710541;2.2705078125E-09;-0.3536376953125;1;235;2.59552150964737E-08;-5.19879907369613E-08;100 nA
-0.3515625;11.4892419709925;-2.2796630859375E-09;-0.35113525390625;1;236;2.59552150964737E-08;-5.19879907369613E-08;100 nA
-0.34912109375;11.5136559709308;2.1026611328125E-09;-0.348724365234375;1;237;2.59552150964737E-08;-5.19879907369613E-08;100 nA
-0.3466796875;11.5380699708692;2.86865234375E-10;-0.346282958984375;1;238;2.59552150964737E-08;-5.19879907369613E-08;100 nA
-0.34423828125;11.5624839708075;5.218505859375E-10;-0.34381103515625;1;239;2.59552150964737E-08;-5.19879907369613E-08;100 nA
-0.341796875;11.5868979707459;4.3304443359375E-09;-0.34136962890625;1;240;2.59552150964737E-08;-5.19879907369613E-08;100 nA
-0.33935546875;11.6113119706843;4.3426513671875E-09;-0.338897705078125;1;241;2.59552150964737E-08;-5.19879907369613E-08;100 nA
-0.3369140625;11.6357259706226;4.7637939453125E-09;-0.336517333984375;1;242;2.59552150964737E-08;-5.19879907369613E-08;100 nA
-0.33447265625;11.660139970561;6.6741943359375E-09;-0.334075927734375;1;243;2.59552150964737E-08;-5.19879907369613E-08;100 nA
-0.33203125;11.6845539704993;1.1590576171875E-08;-0.331573486328125;1;244;2.59552150964737E-08;-5.19879907369613E-08;100 nA
-0.32958984375;11.7089679704377;9.6435546875E-09;-0.32916259765625;1;245;2.59552150964737E-08;-5.19879907369613E-08;100 nA
-0.3271484375;11.7333819703761;1.22528076171875E-08;-0.326751708984375;1;246;2.59552150964737E-08;-5.19879907369613E-08;100 nA
-0.32470703125;11.7577959703144;1.46484375E-08;-0.324371337890625;1;247;2.59552150964737E-08;-5.19879907369613E-08;100 nA
-0.322265625;11.7822099702528;1.7681884765625E-08;-0.321929931640625;1;248;2.59552150964737E-08;-5.19879907369613E-08;100 nA
-0.31982421875;11.8066239701911;1.666259765625E-08;-0.3194580078125;1;249;2.59552150964737E-08;-5.19879907369613E-08;100 nA
-0.3173828125;11.8310379701295;2.2613525390625E-08;-0.3170166015625;1;250;2.59552150964737E-08;-5.19879907369613E-08;100 nA
-0.31494140625;11.8554519700679;2.1697998046875E-08;-0.314544677734375;1;251;2.59552150964737E-08;-5.19879907369613E-08;100 nA
-0.3125;11.8798659700062;2.4200439453125E-08;-0.3121337890625;1;252;2.59552150964737E-08;-5.19879907369613E-08;100 nA
-0.31005859375;11.9042799699446;2.777099609375E-08;-0.309661865234375;1;253;2.59552150964737E-08;-5.19879907369613E-08;100 nA
-0.3076171875;11.9286939698829;2.593994140625E-08;-0.3072509765625;1;254;2.59552150964737E-08;-5.19879907369613E-08;100 nA
-0.30517578125;11.9531079698213;2.838134765625E-08;-0.304840087890625;1;255;2.59552150964737E-08;-5.19879907369613E-08;100 nA
-0.302734375;11.9775219697597;3.0242919921875E-08;-0.302459716796875;1;256;2.59552150964737E-08;-5.19879907369613E-08;100 nA
-0.30029296875;12.001935969698;2.8594970703125E-08;-0.299957275390625;1;257;2.59552150964737E-08;-5.19879907369613E-08;100 nA
-0.2978515625;12.0263499696364;2.752685546875E-08;-0.2974853515625;1;258;2.59552150964737E-08;-5.19879907369613E-08;100 nA
-0.29541015625;12.0507639695747;2.9510498046875E-08;-0.295013427734375;1;259;2.59552150964737E-08;-5.19879907369613E-08;100 nA
-0.29296875;12.0751779695131;2.7923583984375E-08;-0.29266357421875;1;260;2.59552150964737E-08;-5.19879907369613E-08;100 nA
-0.29052734375;12.0995919694515;2.57568359375E-08;-0.290191650390625;1;261;2.59552150964737E-08;-5.19879907369613E-08;100 nA
-0.2880859375;12.1240059693898;2.4658203125E-08;-0.287750244140625;1;262;2.59552150964737E-08;-5.19879907369613E-08;100 nA
-0.28564453125;12.1484199693282;2.5054931640625E-08;-0.285308837890625;1;263;2.59552150964737E-08;-5.19879907369613E-08;100 nA
-0.283203125;12.1728339692665;1.9195556640625E-08;-0.2828369140625;1;264;2.59552150964737E-08;-5.19879907369613E-08;100 nA
-0.28076171875;12.1972479692049;2.1820068359375E-08;-0.2803955078125;1;265;2.59552150964737E-08;-5.19879907369613E-08;100 nA
-0.2783203125;12.2216619691433;1.74560546875E-08;-0.277984619140625;1;266;2.59552150964737E-08;-5.19879907369613E-08;100 nA
-0.27587890625;12.2460759690816;1.68182373046875E-08;-0.2755126953125;1;267;2.59552150964737E-08;-5.19879907369613E-08;100 nA
-0.2734375;12.27048996902;1.593017578125E-08;-0.2730712890625;1;268;2.59552150964737E-08;-5.19879907369613E-08;100 nA
-0.27099609375;12.2949039689584;1.27960205078125E-08;-0.270660400390625;1;269;2.59552150964737E-08;-5.19879907369613E-08;100 nA
-0.2685546875;12.3193179688967;1.18316650390625E-08;-0.2681884765625;1;270;2.59552150964737E-08;-5.19879907369613E-08;100 nA
-0.26611328125;12.3437319688351;1.17095947265625E-08;-0.26568603515625;1;271;2.59552150964737E-08;-5.19879907369613E-08;100 nA
-0.263671875;12.3681459687734;1.1431884765625E-08;-0.263275146484375;1;272;2.59552150964737E-08;-5.19879907369613E-08;100 nA
-0.26123046875;12.3925599687118;6.976318359375E-09;-0.26092529296875;1;273;2.59552150964737E-08;-5.19879907369613E-08;100 nA
-0.2587890625;12.4169739686502;9.625244140625E-09;-0.258392333984375;1;274;2.59552150964737E-08;-5.19879907369613E-08;100 nA
-0.25634765625;12.4413879685885;7.415771484375E-09;-0.256011962890625;1;275;2.59552150964737E-08;-5.19879907369613E-08;100 nA
-0.25390625;12.4658019685269;7.427978515625E-09;-0.2535400390625;1;276;2.59552150964737E-08;-5.19879907369613E-08;100 nA
-0.25146484375;12.4902159684652;4.3243408203125E-09;-0.2510986328125;1;277;2.59552150964737E-08;-5.19879907369613E-08;100 nA
-0.2490234375;12.5146299684036;8.6700439453125E-09;-0.248687744140625;1;278;2.59552150964737E-08;-5.19879907369613E-08;100 nA
-0.24658203125;12.539043968342;2.9144287109375E-09;-0.246246337890625;1;279;2.59552150964737E-08;-5.19879907369613E-08;100 nA
-0.244140625;12.5634579682803;6.256103515625E-09;-0.2437744140625;1;280;2.59552150964737E-08;-5.19879907369613E-08;100 nA
-0.24169921875;12.5878719682187;3.1463623046875E-09;-0.24139404296875;1;281;2.59552150964737E-08;-5.19879907369613E-08;100 nA
-0.2392578125;12.612285968157;3.228759765625E-09;-0.23895263671875;1;282;2.59552150964737E-08;-5.19879907369613E-08;100 nA
-0.23681640625;12.6366999680954;4.87060546875E-09;-0.2364501953125;1;283;2.59552150964737E-08;-5.19879907369613E-08;100 nA
-0.234375;12.6611139680338;3.64990234375E-09;-0.234039306640625;1;284;2.59552150964737E-08;-5.19879907369613E-08;100 nA
-0.23193359375;12.6855279679721;2.978515625E-09;-0.231658935546875;1;285;2.59552150964737E-08;-5.19879907369613E-08;100 nA
-0.2294921875;12.7099419679105;2.838134765625E-09;-0.229156494140625;1;286;2.59552150964737E-08;-5.19879907369613E-08;100 nA
-0.22705078125;12.7343559678488;5.908203125E-09;-0.22674560546875;1;287;2.59552150964737E-08;-5.19879907369613E-08;100 nA
-0.224609375;12.7587699677872;1.556396484375E-09;-0.22430419921875;1;288;2.59552150964737E-08;-5.19879907369613E-08;100 nA
-0.22216796875;12.7831839677256;3.7811279296875E-09;-0.221771240234375;1;289;2.59552150964737E-08;-5.19879907369613E-08;100 nA
-0.2197265625;12.8075979676639;3.106689453125E-09;-0.219390869140625;1;290;2.59552150964737E-08;-5.19879907369613E-08;100 nA
-0.21728515625;12.8320119676023;4.77294921875E-09;-0.21697998046875;1;291;2.59552150964737E-08;-5.19879907369613E-08;100 nA
-0.21484375;12.8564259675406;7.87353515625E-10;-0.214508056640625;1;292;2.59552150964737E-08;-5.19879907369613E-08;100 nA
-0.21240234375;12.880839967479;5.8990478515625E-09;-0.21209716796875;1;293;2.59552150964737E-08;-5.19879907369613E-08;100 nA
-0.2099609375;12.9052539674174;8.1787109375E-10;-0.209686279296875;1;294;2.59552150964737E-08;-5.19879907369613E-08;100 nA
-0.20751953125;12.9296679673557;4.5379638671875E-09;-0.207183837890625;1;295;2.59552150964737E-08;-5.19879907369613E-08;100 nA
-0.205078125;12.9540819672941;2.3193359375E-09;-0.2047119140625;1;296;2.59552150964737E-08;-5.19879907369613E-08;100 nA
-0.20263671875;12.9784959672324;1.2481689453125E-09;-0.202301025390625;1;297;2.59552150964737E-08;-5.19879907369613E-08;100 nA
-0.2001953125;13.0029099671708;3.1097412109375E-09;-0.19989013671875;1;298;2.59552150964737E-08;-5.19879907369613E-08;100 nA
-0.19775390625;13.0273239671092;3.3416748046875E-09;-0.197418212890625;1;299;2.59552150964737E-08;-5.19879907369613E-08;100 nA
-0.1953125;13.0517379670475;2.4688720703125E-09;-0.195037841796875;1;300;2.59552150964737E-08;-5.19879907369613E-08;100 nA
-0.19287109375;13.0761519669859;1.1199951171875E-09;-0.192535400390625;1;301;2.59552150964737E-08;-5.19879907369613E-08;100 nA
-0.1904296875;13.1005659669243;6.1309814453125E-09;-0.1900634765625;1;302;2.59552150964737E-08;-5.19879907369613E-08;100 nA
-0.18798828125;13.1249799668626;2.4383544921875E-09;-0.18768310546875;1;303;2.59552150964737E-08;-5.19879907369613E-08;100 nA
-0.185546875;13.149393966801;3.5614013671875E-09;-0.185272216796875;1;304;2.59552150964737E-08;-5.19879907369613E-08;100 nA
-0.18310546875;13.1738079667393;2.40478515625E-09;-0.18280029296875;1;305;2.59552150964737E-08;-5.19879907369613E-08;100 nA
-0.1806640625;13.1982219666777;5.5938720703125E-09;-0.18035888671875;1;306;2.59552150964737E-08;-5.19879907369613E-08;100 nA
-0.17822265625;13.2226359666161;9.1552734375E-11;-0.17791748046875;1;307;2.59552150964737E-08;-5.19879907369613E-08;100 nA
-0.17578125;13.2470499665544;5.7342529296875E-09;-0.17547607421875;1;308;2.59552150964737E-08;-5.19879907369613E-08;100 nA
-0.17333984375;13.2714639664928;1.5655517578125E-09;-0.173004150390625;1;309;2.59552150964737E-08;-5.19879907369613E-08;100 nA
-0.1708984375;13.2958779664311;3.4454345703125E-09;-0.17059326171875;1;310;2.59552150964737E-08;-5.19879907369613E-08;100 nA
-0.16845703125;13.3202919663695;4.4403076171875E-09;-0.168182373046875;1;311;2.59552150964737E-08;-5.19879907369613E-08;100 nA
-0.166015625;13.3447059663079;1.7059326171875E-09;-0.165740966796875;1;312;2.59552150964737E-08;-5.19879907369613E-08;100 nA
-0.16357421875;13.3691199662462;2.435302734375E-09;-0.163330078125;1;313;2.59552150964737E-08;-5.19879907369613E-08;100 nA
-0.1611328125;13.3935339661846;3.67431640625E-09;-0.160858154296875;1;314;2.59552150964737E-08;-5.19879907369613E-08;100 nA
-0.15869140625;13.4179479661229;4.5196533203125E-09;-0.158416748046875;1;315;2.59552150964737E-08;-5.19879907369613E-08;100 nA
-0.15625;13.4423619660613;3.11279296875E-10;-0.156036376953125;1;316;2.59552150964737E-08;-5.19879907369613E-08;100 nA
-0.15380859375;13.4667759659997;4.84619140625E-09;-0.153533935546875;1;317;2.59552150964737E-08;-5.19879907369613E-08;100 nA
-0.1513671875;13.491189965938;3.302001953125E-09;-0.15106201171875;1;318;2.59552150964737E-08;-5.19879907369613E-08;100 nA
-0.14892578125;13.5156039658764;4.010009765625E-09;-0.14862060546875;1;319;2.59552150964737E-08;-5.19879907369613E-08;100 nA
-0.146484375;13.5400179658147;1.220703125E-09;-0.14617919921875;1;320;2.59552150964737E-08;-5.19879907369613E-08;100 nA
-0.14404296875;13.5644319657531;6.53076171875E-09;-0.14385986328125;1;321;2.59552150964737E-08;-5.19879907369613E-08;100 nA
-0.1416015625;13.5888459656915;9.94873046875E-10;-0.141265869140625;1;322;2.59552150964737E-08;-5.19879907369613E-08;100 nA
-0.13916015625;13.6132599656298;5.1666259765625E-09;-0.138885498046875;1;323;2.59552150964737E-08;-5.19879907369613E-08;100 nA
-0.13671875;13.6376739655682;2.2613525390625E-09;-0.136444091796875;1;324;2.59552150964737E-08;-5.19879907369613E-08;100 nA
-0.13427734375;13.6620879655065;2.9144287109375E-09;-0.134002685546875;1;325;2.59552150964737E-08;-5.19879907369613E-08;100 nA
-0.1318359375;13.6865019654449;4.65087890625E-09;-0.131561279296875;1;326;2.59552150964737E-08;-5.19879907369613E-08;100 nA
-0.12939453125;13.7109159653833;3.0853271484375E-09;-0.129119873046875;1;327;2.59552150964737E-08;-5.19879907369613E-08;100 nA
-0.126953125;13.7353299653216;2.8045654296875E-09;-0.126739501953125;1;328;2.59552150964737E-08;-5.19879907369613E-08;100 nA
-0.12451171875;13.75974396526;3.4881591796875E-09;-0.124267578125;1;329;2.59552150964737E-08;-5.19879907369613E-08;100 nA
-0.1220703125;13.7841579651983;6.18896484375E-09;-0.121856689453125;1;330;2.59552150964737E-08;-5.19879907369613E-08;100 nA
-0.11962890625;13.8085719651367;1.953125E-09;-0.119384765625;1;331;2.59552150964737E-08;-5.19879907369613E-08;100 nA
-0.1171875;13.8329859650751;4.693603515625E-09;-0.116943359375;1;332;2.59552150964737E-08;-5.19879907369613E-08;100 nA
-0.11474609375;13.8573999650134;3.6529541015625E-09;-0.114532470703125;1;333;2.59552150964737E-08;-5.19879907369613E-08;100 nA
-0.1123046875;13.8818139649518;5.328369140625E-09;-0.112060546875;1;334;2.59552150964737E-08;-5.19879907369613E-08;100 nA
-0.10986328125;13.9062279648901;1.59912109375E-09;-0.10955810546875;1;335;2.59552150964737E-08;-5.19879907369613E-08;100 nA
-0.107421875;13.9306419648285;6.707763671875E-09;-0.107208251953125;1;336;2.59552150964737E-08;-5.19879907369613E-08;100 nA
-0.10498046875;13.9550559647669;1.507568359375E-09;-0.104766845703125;1;337;2.59552150964737E-08;-5.19879907369613E-08;100 nA
-0.1025390625;13.9794699647052;5.2886962890625E-09;-0.102264404296875;1;338;2.59552150964737E-08;-5.19879907369613E-08;100 nA
-0.10009765625;14.0038839646436;3.6834716796875E-09;-0.099853515625;1;339;2.59552150964737E-08;-5.19879907369613E-08;100 nA
-0.09765625;14.028297964582;2.7587890625E-09;-0.097381591796875;1;340;2.59552150964737E-08;-5.19879907369613E-08;100 nA
-0.09521484375;14.0527119645203;4.5684814453125E-09;-0.095001220703125;1;341;2.59552150964737E-08;-5.19879907369613E-08;100 nA
-0.0927734375;14.0771259644587;4.693603515625E-09;-0.092559814453125;1;342;2.59552150964737E-08;-5.19879907369613E-08;100 nA
-0.09033203125;14.101539964397;3.2867431640625E-09;-0.09014892578125;1;343;2.59552150964737E-08;-5.19879907369613E-08;100 nA
-0.087890625;14.1259539643354;2.3773193359375E-09;-0.087646484375;1;344;2.59552150964737E-08;-5.19879907369613E-08;100 nA
-0.08544921875;14.1503679642738;6.756591796875E-09;-0.085174560546875;1;345;2.59552150964737E-08;-5.19879907369613E-08;100 nA
-0.0830078125;14.1747819642121;3.045654296875E-09;-0.08282470703125;1;346;2.59552150964737E-08;-5.19879907369613E-08;100 nA
-0.08056640625;14.1991959641505;4.6295166015625E-09;-0.08038330078125;1;347;2.59552150964737E-08;-5.19879907369613E-08;100 nA
-0.078125;14.2236099640888;3.25927734375E-09;-0.077972412109375;1;348;2.59552150964737E-08;-5.19879907369613E-08;100 nA
-0.07568359375;14.2480239640272;6.341552734375E-09;-0.075469970703125;1;349;2.59552150964737E-08;-5.19879907369613E-08;100 nA
-0.0732421875;14.2724379639656;1.5869140625E-09;-0.073089599609375;1;350;2.59552150964737E-08;-5.19879907369613E-08;100 nA
-0.07080078125;14.2968519639039;6.744384765625E-09;-0.07061767578125;1;351;2.59552150964737E-08;-5.19879907369613E-08;100 nA
-0.068359375;14.3212659638423;2.4261474609375E-09;-0.068145751953125;1;352;2.59552150964737E-08;-5.19879907369613E-08;100 nA
-0.06591796875;14.3456799637806;4.559326171875E-09;-0.065704345703125;1;353;2.59552150964737E-08;-5.19879907369613E-08;100 nA
-0.0634765625;14.370093963719;4.7332763671875E-09;-0.063262939453125;1;354;2.59552150964737E-08;-5.19879907369613E-08;100 nA
-0.06103515625;14.3945079636574;2.9998779296875E-09;-0.060821533203125;1;355;2.59552150964737E-08;-5.19879907369613E-08;100 nA
-0.05859375;14.4189219635957;3.7384033203125E-09;-0.05841064453125;1;356;2.59552150964737E-08;-5.19879907369613E-08;100 nA
-0.05615234375;14.4433359635341;5.0048828125E-09;-0.05596923828125;1;357;2.59552150964737E-08;-5.19879907369613E-08;100 nA
-0.0537109375;14.4677499634724;5.267333984375E-09;-0.053558349609375;1;358;2.59552150964737E-08;-5.19879907369613E-08;100 nA
-0.05126953125;14.4921639634108;1.2298583984375E-09;-0.051116943359375;1;359;2.59552150964737E-08;-5.19879907369613E-08;100 nA
-0.048828125;14.5165779633492;6.55517578125E-09;-0.048614501953125;1;360;2.59552150964737E-08;-5.19879907369613E-08;100 nA
-0.04638671875;14.5409919632875;4.193115234375E-09;-0.04615478515625;1;361;2.59552150964737E-08;-5.19879907369613E-08;100 nA
-0.0439453125;14.5654059632259;5.1361083984375E-09;-0.04371337890625;1;362;2.59552150964737E-08;-5.19879907369613E-08;100 nA
-0.04150390625;14.5898199631642;3.1280517578125E-09;-0.041259765625;1;363;2.59552150964737E-08;-5.19879907369613E-08;100 nA
-0.0390625;14.6142339631026;6.92138671875E-09;-0.0388458251953125;1;364;2.59552150964737E-08;-5.19879907369613E-08;100 nA
-0.03662109375;14.638647963041;1.52587890625E-09;-0.03638916015625;1;365;2.59552150964737E-08;-5.19879907369613E-08;100 nA
-0.0341796875;14.6630619629793;6.5521240234375E-09;-0.0339447021484375;1;366;2.59552150964737E-08;-5.19879907369613E-08;100 nA
-0.03173828125;14.6874759629177;2.7923583984375E-09;-0.0314910888671875;1;367;2.59552150964737E-08;-5.19879907369613E-08;100 nA
-0.029296875;14.711889962856;4.425048828125E-09;-0.0290863037109375;1;368;2.59552150964737E-08;-5.19879907369613E-08;100 nA
-0.02685546875;14.7363039627944;5.6732177734375E-09;-0.026641845703125;1;369;2.59552150964737E-08;-5.19879907369613E-08;100 nA
-0.0244140625;14.7607179627328;3.9215087890625E-09;-0.0241912841796875;1;370;2.59552150964737E-08;-5.19879907369613E-08;100 nA
-0.02197265625;14.7851319626711;3.4149169921875E-09;-0.021734619140625;1;371;2.59552150964737E-08;-5.19879907369613E-08;100 nA
-0.01953125;14.8095459626095;4.571533203125E-09;-0.0193206787109375;1;372;2.59552150964737E-08;-5.19879907369613E-08;100 nA
-0.01708984375;14.8339599625479;6.640625E-09;-0.01689453125;1;373;2.59552150964737E-08;-5.19879907369613E-08;100 nA
-0.0146484375;14.8583739624862;2.313232421875E-09;-0.0144439697265625;1;374;2.59552150964737E-08;-5.19879907369613E-08;100 nA
-0.01220703125;14.8827879624246;5.7769775390625E-09;-0.0120025634765625;1;375;2.59552150964737E-08;-5.19879907369613E-08;100 nA
-0.009765625;14.9072019623629;4.8065185546875E-09;-0.0095855712890625;1;376;2.59552150964737E-08;-5.19879907369613E-08;100 nA
-0.00732421875;14.9316159623013;5.9112548828125E-09;-0.0071258544921875;1;377;2.59552150964737E-08;-5.19879907369613E-08;100 nA
-0.0048828125;14.9560299622397;2.01416015625E-09;-0.00469970703125;1;378;2.59552150964737E-08;-5.19879907369613E-08;100 nA
-0.00244140625;14.980443962178;7.891845703125E-09;-0.002276611328125;1;379;2.59552150964737E-08;-5.19879907369613E-08;100 nA
0;15.0048579621164;2.459716796875E-09;0.000177001953125006;1;380;2.59552150964737E-08;-5.19879907369613E-08;100 nA
