Potential applied (V);Time (s);WE(1).Current (A);WE(1).Potential (V);Scan;Index;Q+;Q-;Current range
0.00244140625;5.76695498543984;6.195068359375E-10;0.002606201171875;1;1;1.70557945966721E-08;-7.57504254579544E-08;100 nA
0.0048828125;5.7913689853782;-2.9205322265625E-09;0.005078125;1;2;1.70557945966721E-08;-7.57504254579544E-08;100 nA
0.00732421875;5.81578298531656;3.271484375E-09;0.00750732421875;1;3;1.70557945966721E-08;-7.57504254579544E-08;100 nA
0.009765625;5.84019698525492;-2.5390625E-09;0.0099517822265625;1;4;1.70557945966721E-08;-7.57504254579544E-08;100 nA
0.01220703125;5.86461098519328;2.05078125E-09;0.012408447265625;1;5;1.70557945966721E-08;-7.57504254579544E-08;100 nA
0.009765625;5.88902498513164;-2.032470703125E-09;0.0099365234375;1;6;1.70557945966721E-08;-7.57504254579544E-08;100 nA
0.00732421875;5.91343898507;-1.751708984375E-09;0.00751953125;1;7;1.70557945966721E-08;-7.57504254579544E-08;100 nA
0.0048828125;5.93785298500836;-4.852294921875E-10;0.00505981445312501;1;8;1.70557945966721E-08;-7.57504254579544E-08;100 nA
0.00244140625;5.96226698494672;-9.490966796875E-10;0.0026275634765625;1;9;1.70557945966721E-08;-7.57504254579544E-08;100 nA
0;5.98668098488508;-2.301025390625E-09;0.00018310546875;1;10;1.70557945966721E-08;-7.57504254579544E-08;100 nA
-0.00244140625;6.01109498482344;-2.79541015625E-09;-0.00225830078125;1;11;1.70557945966721E-08;-7.57504254579544E-08;100 nA
-0.0048828125;6.0355089847618;1.226806640625E-09;-0.0046966552734375;1;12;1.70557945966721E-08;-7.57504254579544E-08;100 nA
-0.00732421875;6.05992298470017;-3.2135009765625E-09;-0.00712890625;1;13;1.70557945966721E-08;-7.57504254579544E-08;100 nA
-0.009765625;6.08433698463853;-1.4984130859375E-09;-0.0095672607421875;1;14;1.70557945966721E-08;-7.57504254579544E-08;100 nA
-0.01220703125;6.10875098457689;-2.8717041015625E-09;-0.012005615234375;1;15;1.70557945966721E-08;-7.57504254579544E-08;100 nA
-0.0146484375;6.13316498451525;-4.119873046875E-10;-0.0144439697265625;1;16;1.70557945966721E-08;-7.57504254579544E-08;100 nA
-0.01708984375;6.15757898445361;-5.267333984375E-09;-0.0168609619140625;1;17;1.70557945966721E-08;-7.57504254579544E-08;100 nA
-0.01953125;6.18199298439197;3.662109375E-10;-0.019305419921875;1;18;1.70557945966721E-08;-7.57504254579544E-08;100 nA
-0.02197265625;6.20640698433033;-4.925537109375E-09;-0.021759033203125;1;19;1.70557945966721E-08;-7.57504254579544E-08;100 nA
-0.0244140625;6.23082098426869;-1.64794921875E-09;-0.0241729736328125;1;20;1.70557945966721E-08;-7.57504254579544E-08;100 nA
-0.02685546875;6.25523498420705;-3.3782958984375E-09;-0.026629638671875;1;21;1.70557945966721E-08;-7.57504254579544E-08;100 nA
-0.029296875;6.27964898414541;-4.08935546875E-09;-0.0290802001953125;1;22;1.70557945966721E-08;-7.57504254579544E-08;100 nA
-0.03173828125;6.30406298408377;-3.8421630859375E-09;-0.0315032958984375;1;23;1.70557945966721E-08;-7.57504254579544E-08;100 nA
-0.0341796875;6.32847698402213;-2.691650390625E-09;-0.0339202880859375;1;24;1.70557945966721E-08;-7.57504254579544E-08;100 nA
-0.03662109375;6.35289098396049;-3.6712646484375E-09;-0.03638916015625;1;25;1.70557945966721E-08;-7.57504254579544E-08;100 nA
-0.0390625;6.37730498389885;-6.2347412109375E-09;-0.0388397216796875;1;26;1.70557945966721E-08;-7.57504254579544E-08;100 nA
-0.04150390625;6.40171898383721;-1.5655517578125E-09;-0.041278076171875;1;27;1.70557945966721E-08;-7.57504254579544E-08;100 nA
-0.0439453125;6.42613298377557;-5.035400390625E-09;-0.0437347412109375;1;28;1.70557945966721E-08;-7.57504254579544E-08;100 nA
-0.04638671875;6.45054698371393;-3.375244140625E-09;-0.046148681640625;1;29;1.70557945966721E-08;-7.57504254579544E-08;100 nA
-0.048828125;6.47496098365229;-5.6396484375E-09;-0.0485931396484375;1;30;1.70557945966721E-08;-7.57504254579544E-08;100 nA
-0.05126953125;6.49937498359066;-1.5716552734375E-09;-0.051055908203125;1;31;1.70557945966721E-08;-7.57504254579544E-08;100 nA
-0.0537109375;6.52378898352902;-7.1258544921875E-09;-0.05352783203125;1;32;1.70557945966721E-08;-7.57504254579544E-08;100 nA
-0.05615234375;6.54820298346738;-2.154541015625E-09;-0.05596923828125;1;33;1.70557945966721E-08;-7.57504254579544E-08;100 nA
-0.05859375;6.57261698340574;-6.7657470703125E-09;-0.058380126953125;1;34;1.70557945966721E-08;-7.57504254579544E-08;100 nA
-0.06103515625;6.5970309833441;-3.9398193359375E-09;-0.060821533203125;1;35;1.70557945966721E-08;-7.57504254579544E-08;100 nA
-0.0634765625;6.62144498328246;-4.052734375E-09;-0.063232421875;1;36;1.70557945966721E-08;-7.57504254579544E-08;100 nA
-0.06591796875;6.64585898322082;-5.4931640625E-09;-0.065704345703125;1;37;1.70557945966721E-08;-7.57504254579544E-08;100 nA
-0.068359375;6.67027298315918;-5.7525634765625E-09;-0.068206787109375;1;38;1.70557945966721E-08;-7.57504254579544E-08;100 nA
-0.07080078125;6.69468698309754;-5.0750732421875E-09;-0.070556640625;1;39;1.70557945966721E-08;-7.57504254579544E-08;100 nA
-0.0732421875;6.7191009830359;-3.4027099609375E-09;-0.073028564453125;1;40;1.70557945966721E-08;-7.57504254579544E-08;100 nA
-0.07568359375;6.74351498297426;-7.989501953125E-09;-0.07550048828125;1;41;1.70557945966721E-08;-7.57504254579544E-08;100 nA
-0.078125;6.76792898291262;-3.9154052734375E-09;-0.077911376953125;1;42;1.70557945966721E-08;-7.57504254579544E-08;100 nA
-0.08056640625;6.79234298285098;-5.6488037109375E-09;-0.080413818359375;1;43;1.70557945966721E-08;-7.57504254579544E-08;100 nA
-0.0830078125;6.81675698278934;-3.91845703125E-09;-0.082794189453125;1;44;1.70557945966721E-08;-7.57504254579544E-08;100 nA
-0.08544921875;6.8411709827277;-7.9132080078125E-09;-0.08526611328125;1;45;1.70557945966721E-08;-7.57504254579544E-08;100 nA
-0.087890625;6.86558498266606;-2.5482177734375E-09;-0.087646484375;1;46;1.70557945966721E-08;-7.57504254579544E-08;100 nA
-0.09033203125;6.88999898260442;-8.575439453125E-09;-0.090087890625;1;47;1.70557945966721E-08;-7.57504254579544E-08;100 nA
-0.0927734375;6.91441298254279;-3.8970947265625E-09;-0.092559814453125;1;48;1.70557945966721E-08;-7.57504254579544E-08;100 nA
-0.09521484375;6.93882698248115;-7.4249267578125E-09;-0.094970703125;1;49;1.70557945966721E-08;-7.57504254579544E-08;100 nA
-0.09765625;6.96324098241951;-6.195068359375E-09;-0.09735107421875;1;50;1.70557945966721E-08;-7.57504254579544E-08;100 nA
-0.10009765625;6.98765498235787;-5.670166015625E-09;-0.099884033203125;1;51;1.70557945966721E-08;-7.57504254579544E-08;100 nA
-0.1025390625;7.01206898229623;-5.963134765625E-09;-0.102325439453125;1;52;1.70557945966721E-08;-7.57504254579544E-08;100 nA
-0.10498046875;7.03648298223459;-7.3211669921875E-09;-0.104766845703125;1;53;1.70557945966721E-08;-7.57504254579544E-08;100 nA
-0.107421875;7.06089698217295;-7.525634765625E-09;-0.107147216796875;1;54;1.70557945966721E-08;-7.57504254579544E-08;100 nA
-0.10986328125;7.08531098211131;-3.759765625E-09;-0.109588623046875;1;55;1.70557945966721E-08;-7.57504254579544E-08;100 nA
-0.1123046875;7.10972498204967;-8.0078125E-09;-0.112091064453125;1;56;1.70557945966721E-08;-7.57504254579544E-08;100 nA
-0.11474609375;7.13413898198803;-6.103515625E-09;-0.114471435546875;1;57;1.70557945966721E-08;-7.57504254579544E-08;100 nA
-0.1171875;7.15855298192639;-7.696533203125E-09;-0.116912841796875;1;58;1.70557945966721E-08;-7.57504254579544E-08;100 nA
-0.11962890625;7.18296698186475;-5.0323486328125E-09;-0.11932373046875;1;59;1.70557945966721E-08;-7.57504254579544E-08;100 nA
-0.1220703125;7.20738098180311;-9.97314453125E-09;-0.121826171875;1;60;1.70557945966721E-08;-7.57504254579544E-08;100 nA
-0.12451171875;7.23179498174147;-4.2144775390625E-09;-0.124267578125;1;61;1.70557945966721E-08;-7.57504254579544E-08;100 nA
-0.126953125;7.25620898167983;-9.50927734375E-09;-0.126708984375;1;62;1.70557945966721E-08;-7.57504254579544E-08;100 nA
-0.12939453125;7.28062298161819;-6.14013671875E-09;-0.129119873046875;1;63;1.70557945966721E-08;-7.57504254579544E-08;100 nA
-0.1318359375;7.30503698155655;-7.71484375E-09;-0.131591796875;1;64;1.70557945966721E-08;-7.57504254579544E-08;100 nA
-0.13427734375;7.32945098149492;-9.24072265625E-09;-0.134002685546875;1;65;1.70557945966721E-08;-7.57504254579544E-08;100 nA
-0.13671875;7.35386498143328;-7.87353515625E-09;-0.136474609375;1;66;1.70557945966721E-08;-7.57504254579544E-08;100 nA
-0.13916015625;7.37827898137164;-7.0831298828125E-09;-0.138885498046875;1;67;1.70557945966721E-08;-7.57504254579544E-08;100 nA
-0.1416015625;7.40269298131;-7.6141357421875E-09;-0.141326904296875;1;68;1.70557945966721E-08;-7.57504254579544E-08;100 nA
-0.14404296875;7.42710698124836;-9.771728515625E-09;-0.143768310546875;1;69;1.70557945966721E-08;-7.57504254579544E-08;100 nA
-0.146484375;7.45152098118672;-4.9285888671875E-09;-0.146209716796875;1;70;1.70557945966721E-08;-7.57504254579544E-08;100 nA
-0.14892578125;7.47593498112508;-8.941650390625E-09;-0.148681640625;1;71;1.70557945966721E-08;-7.57504254579544E-08;100 nA
-0.1513671875;7.50034898106344;-6.964111328125E-09;-0.151092529296875;1;72;1.70557945966721E-08;-7.57504254579544E-08;100 nA
-0.15380859375;7.5247629810018;-9.271240234375E-09;-0.15350341796875;1;73;1.70557945966721E-08;-7.57504254579544E-08;100 nA
-0.15625;7.54917698094016;-5.06591796875E-09;-0.155914306640625;1;74;1.70557945966721E-08;-7.57504254579544E-08;100 nA
-0.15869140625;7.57359098087852;-1.15509033203125E-08;-0.158355712890625;1;75;1.70557945966721E-08;-7.57504254579544E-08;100 nA
-0.1611328125;7.59800498081688;-5.3070068359375E-09;-0.16082763671875;1;76;1.70557945966721E-08;-7.57504254579544E-08;100 nA
-0.16357421875;7.62241898075524;-9.9761962890625E-09;-0.163299560546875;1;77;1.70557945966721E-08;-7.57504254579544E-08;100 nA
-0.166015625;7.6468329806936;-7.598876953125E-09;-0.16571044921875;1;78;1.70557945966721E-08;-7.57504254579544E-08;100 nA
-0.16845703125;7.67124698063196;-7.8857421875E-09;-0.168212890625;1;79;1.70557945966721E-08;-7.57504254579544E-08;100 nA
-0.1708984375;7.69566098057032;-9.5367431640625E-09;-0.1705322265625;1;80;1.70557945966721E-08;-7.57504254579544E-08;100 nA
-0.17333984375;7.72007498050868;-9.0576171875E-09;-0.17303466796875;1;81;1.70557945966721E-08;-7.57504254579544E-08;100 nA
-0.17578125;7.74448898044704;-8.2122802734375E-09;-0.175445556640625;1;82;1.70557945966721E-08;-7.57504254579544E-08;100 nA
-0.17822265625;7.76890298038541;-7.2113037109375E-09;-0.17791748046875;1;83;1.70557945966721E-08;-7.57504254579544E-08;100 nA
-0.1806640625;7.79331698032377;-1.16180419921875E-08;-0.18035888671875;1;84;1.70557945966721E-08;-7.57504254579544E-08;100 nA
-0.18310546875;7.81773098026213;-7.110595703125E-09;-0.182708740234375;1;85;1.70557945966721E-08;-7.57504254579544E-08;100 nA
-0.185546875;7.84214498020049;-9.2864990234375E-09;-0.18524169921875;1;86;1.70557945966721E-08;-7.57504254579544E-08;100 nA
-0.18798828125;7.86655898013885;-7.476806640625E-09;-0.187652587890625;1;87;1.70557945966721E-08;-7.57504254579544E-08;100 nA
-0.1904296875;7.89097298007721;-1.134033203125E-08;-0.1900634765625;1;88;1.70557945966721E-08;-7.57504254579544E-08;100 nA
-0.19287109375;7.91538698001557;-5.963134765625E-09;-0.192535400390625;1;89;1.70557945966721E-08;-7.57504254579544E-08;100 nA
-0.1953125;7.93980097995393;-1.180419921875E-08;-0.19500732421875;1;90;1.70557945966721E-08;-7.57504254579544E-08;100 nA
-0.19775390625;7.96421497989229;-6.9122314453125E-09;-0.19744873046875;1;91;1.70557945966721E-08;-7.57504254579544E-08;100 nA
-0.2001953125;7.98862897983065;-1.09100341796875E-08;-0.199859619140625;1;92;1.70557945966721E-08;-7.57504254579544E-08;100 nA
-0.20263671875;8.01304297976901;-9.5306396484375E-09;-0.2022705078125;1;93;1.70557945966721E-08;-7.57504254579544E-08;100 nA
-0.205078125;8.03745697970737;-8.7860107421875E-09;-0.204803466796875;1;94;1.70557945966721E-08;-7.57504254579544E-08;100 nA
-0.20751953125;8.06187097964573;-9.423828125E-09;-0.207183837890625;1;95;1.70557945966721E-08;-7.57504254579544E-08;100 nA
-0.2099609375;8.08628497958409;-1.02569580078125E-08;-0.209686279296875;1;96;1.70557945966721E-08;-7.57504254579544E-08;100 nA
-0.21240234375;8.11069897952245;-1.0284423828125E-08;-0.21209716796875;1;97;1.70557945966721E-08;-7.57504254579544E-08;100 nA
-0.21484375;8.13511297946081;-6.6192626953125E-09;-0.2144775390625;1;98;1.70557945966721E-08;-7.57504254579544E-08;100 nA
-0.21728515625;8.15952697939917;-1.082763671875E-08;-0.216949462890625;1;99;1.70557945966721E-08;-7.57504254579544E-08;100 nA
-0.2197265625;8.18394097933754;-8.3953857421875E-09;-0.219329833984375;1;100;1.70557945966721E-08;-7.57504254579544E-08;100 nA
-0.22216796875;8.2083549792759;-9.442138671875E-09;-0.221832275390625;1;101;1.70557945966721E-08;-7.57504254579544E-08;100 nA
-0.224609375;8.23276897921426;-7.720947265625E-09;-0.224273681640625;1;102;1.70557945966721E-08;-7.57504254579544E-08;100 nA
-0.22705078125;8.25718297915262;-1.26190185546875E-08;-0.2266845703125;1;103;1.70557945966721E-08;-7.57504254579544E-08;100 nA
-0.2294921875;8.28159697909098;-6.622314453125E-09;-0.229095458984375;1;104;1.70557945966721E-08;-7.57504254579544E-08;100 nA
-0.23193359375;8.30601097902934;-1.3446044921875E-08;-0.2315673828125;1;105;1.70557945966721E-08;-7.57504254579544E-08;100 nA
-0.234375;8.3304249789677;-8.941650390625E-09;-0.2340087890625;1;106;1.70557945966721E-08;-7.57504254579544E-08;100 nA
-0.23681640625;8.35483897890606;-1.202392578125E-08;-0.2364501953125;1;107;1.70557945966721E-08;-7.57504254579544E-08;100 nA
-0.2392578125;8.37925297884442;-1.1688232421875E-08;-0.238922119140625;1;108;1.70557945966721E-08;-7.57504254579544E-08;100 nA
-0.24169921875;8.40366697878278;-1.16851806640625E-08;-0.241363525390625;1;109;1.70557945966721E-08;-7.57504254579544E-08;100 nA
-0.244140625;8.42808097872114;-1.1468505859375E-08;-0.243743896484375;1;110;1.70557945966721E-08;-7.57504254579544E-08;100 nA
-0.24658203125;8.4524949786595;-1.23870849609375E-08;-0.2462158203125;1;111;1.70557945966721E-08;-7.57504254579544E-08;100 nA
-0.2490234375;8.47690897859786;-1.444091796875E-08;-0.2486572265625;1;112;1.70557945966721E-08;-7.57504254579544E-08;100 nA
-0.25146484375;8.50132297853622;-1.08734130859375E-08;-0.251068115234375;1;113;1.70557945966721E-08;-7.57504254579544E-08;100 nA
-0.25390625;8.52573697847458;-1.42913818359375E-08;-0.253570556640625;1;114;1.70557945966721E-08;-7.57504254579544E-08;100 nA
-0.25634765625;8.55015097841294;-1.38275146484375E-08;-0.256011962890625;1;115;1.70557945966721E-08;-7.57504254579544E-08;100 nA
-0.2587890625;8.5745649783513;-1.5948486328125E-08;-0.25836181640625;1;116;1.70557945966721E-08;-7.57504254579544E-08;100 nA
-0.26123046875;8.59897897828967;-1.2786865234375E-08;-0.260894775390625;1;117;1.70557945966721E-08;-7.57504254579544E-08;100 nA
-0.263671875;8.62339297822803;-1.9873046875E-08;-0.263275146484375;1;118;1.70557945966721E-08;-7.57504254579544E-08;100 nA
-0.26611328125;8.64780697816639;-1.50665283203125E-08;-0.26568603515625;1;119;1.70557945966721E-08;-7.57504254579544E-08;100 nA
-0.2685546875;8.67222097810475;-2.0928955078125E-08;-0.268157958984375;1;120;1.70557945966721E-08;-7.57504254579544E-08;100 nA
-0.27099609375;8.69663497804311;-1.9256591796875E-08;-0.270538330078125;1;121;1.70557945966721E-08;-7.57504254579544E-08;100 nA
-0.2734375;8.72104897798147;-2.044677734375E-08;-0.27301025390625;1;122;1.70557945966721E-08;-7.57504254579544E-08;100 nA
-0.27587890625;8.74546297791983;-2.3590087890625E-08;-0.27545166015625;1;123;1.70557945966721E-08;-7.57504254579544E-08;100 nA
-0.2783203125;8.76987697785819;-2.47802734375E-08;-0.2779541015625;1;124;1.70557945966721E-08;-7.57504254579544E-08;100 nA
-0.28076171875;8.79429097779655;-2.5457763671875E-08;-0.280364990234375;1;125;1.70557945966721E-08;-7.57504254579544E-08;100 nA
-0.283203125;8.81870497773491;-2.6824951171875E-08;-0.282806396484375;1;126;1.70557945966721E-08;-7.57504254579544E-08;100 nA
-0.28564453125;8.84311897767327;-3.1707763671875E-08;-0.2852783203125;1;127;1.70557945966721E-08;-7.57504254579544E-08;100 nA
-0.2880859375;8.86753297761163;-3.0059814453125E-08;-0.287628173828125;1;128;1.70557945966721E-08;-7.57504254579544E-08;100 nA
-0.29052734375;8.89194697754999;-3.3050537109375E-08;-0.290130615234375;1;129;1.70557945966721E-08;-7.57504254579544E-08;100 nA
-0.29296875;8.91636097748835;-3.4942626953125E-08;-0.292572021484375;1;130;1.70557945966721E-08;-7.57504254579544E-08;100 nA
-0.29541015625;8.94077497742671;-3.8970947265625E-08;-0.294921875;1;131;1.70557945966721E-08;-7.57504254579544E-08;100 nA
-0.2978515625;8.96518897736507;-3.6895751953125E-08;-0.2974853515625;1;132;1.70557945966721E-08;-7.57504254579544E-08;100 nA
-0.30029296875;8.98960297730343;-4.3701171875E-08;-0.2998046875;1;133;1.70557945966721E-08;-7.57504254579544E-08;100 nA
-0.302734375;9.01401697724179;-4.083251953125E-08;-0.30230712890625;1;134;1.70557945966721E-08;-7.57504254579544E-08;100 nA
-0.30517578125;9.03843097718016;-4.4158935546875E-08;-0.30474853515625;1;135;1.70557945966721E-08;-7.57504254579544E-08;100 nA
-0.3076171875;9.06284497711852;-4.4525146484375E-08;-0.307159423828125;1;136;1.70557945966721E-08;-7.57504254579544E-08;100 nA
-0.31005859375;9.08725897705688;-4.278564453125E-08;-0.30963134765625;1;137;1.70557945966721E-08;-7.57504254579544E-08;100 nA
-0.3125;9.11167297699524;-4.2510986328125E-08;-0.311981201171875;1;138;1.70557945966721E-08;-7.57504254579544E-08;100 nA
-0.31494140625;9.1360869769336;-4.364013671875E-08;-0.314544677734375;1;139;1.70557945966721E-08;-7.57504254579544E-08;100 nA
-0.3173828125;9.16050097687196;-4.095458984375E-08;-0.31689453125;1;140;1.70557945966721E-08;-7.57504254579544E-08;100 nA
-0.31982421875;9.18491497681032;-3.6712646484375E-08;-0.319427490234375;1;141;1.70557945966721E-08;-7.57504254579544E-08;100 nA
-0.322265625;9.20932897674868;-3.753662109375E-08;-0.3218994140625;1;142;1.70557945966721E-08;-7.57504254579544E-08;100 nA
-0.32470703125;9.23374297668704;-3.4820556640625E-08;-0.324310302734375;1;143;1.70557945966721E-08;-7.57504254579544E-08;100 nA
-0.3271484375;9.2581569766254;-3.314208984375E-08;-0.326690673828125;1;144;1.70557945966721E-08;-7.57504254579544E-08;100 nA
-0.32958984375;9.28257097656376;-3.0670166015625E-08;-0.32916259765625;1;145;1.70557945966721E-08;-7.57504254579544E-08;100 nA
-0.33203125;9.30698497650212;-3.1097412109375E-08;-0.33160400390625;1;146;1.70557945966721E-08;-7.57504254579544E-08;100 nA
-0.33447265625;9.33139897644048;-2.5177001953125E-08;-0.334075927734375;1;147;1.70557945966721E-08;-7.57504254579544E-08;100 nA
-0.3369140625;9.35581297637884;-2.813720703125E-08;-0.33648681640625;1;148;1.70557945966721E-08;-7.57504254579544E-08;100 nA
-0.33935546875;9.3802269763172;-2.313232421875E-08;-0.338836669921875;1;149;1.70557945966721E-08;-7.57504254579544E-08;100 nA
-0.341796875;9.40464097625556;-2.392578125E-08;-0.341400146484375;1;150;1.70557945966721E-08;-7.57504254579544E-08;100 nA
-0.34423828125;9.42905497619392;-2.362060546875E-08;-0.343780517578125;1;151;1.70557945966721E-08;-7.57504254579544E-08;100 nA
-0.3466796875;9.45346897613229;-2.1636962890625E-08;-0.346221923828125;1;152;1.70557945966721E-08;-7.57504254579544E-08;100 nA
-0.34912109375;9.47788297607065;-2.1429443359375E-08;-0.348663330078125;1;153;1.70557945966721E-08;-7.57504254579544E-08;100 nA
-0.3515625;9.50229697600901;-2.158203125E-08;-0.35113525390625;1;154;1.70557945966721E-08;-7.57504254579544E-08;100 nA
-0.35400390625;9.52671097594737;-2.20489501953125E-08;-0.353546142578125;1;155;1.70557945966721E-08;-7.57504254579544E-08;100 nA
-0.3564453125;9.55112497588573;-1.74346923828125E-08;-0.35595703125;1;156;1.70557945966721E-08;-7.57504254579544E-08;100 nA
-0.35888671875;9.57553897582409;-2.13348388671875E-08;-0.358428955078125;1;157;1.70557945966721E-08;-7.57504254579544E-08;100 nA
-0.361328125;9.59995297576245;-1.8707275390625E-08;-0.360931396484375;1;158;1.70557945966721E-08;-7.57504254579544E-08;100 nA
-0.36376953125;9.62436697570081;-2.10540771484375E-08;-0.363311767578125;1;159;1.70557945966721E-08;-7.57504254579544E-08;100 nA
-0.3662109375;9.64878097563917;-1.7181396484375E-08;-0.36578369140625;1;160;1.70557945966721E-08;-7.57504254579544E-08;100 nA
-0.36865234375;9.67319497557753;-2.2613525390625E-08;-0.3681640625;1;161;1.70557945966721E-08;-7.57504254579544E-08;100 nA
-0.37109375;9.69760897551589;-1.69677734375E-08;-0.37066650390625;1;162;1.70557945966721E-08;-7.57504254579544E-08;100 nA
-0.37353515625;9.72202297545425;-2.166748046875E-08;-0.37310791015625;1;163;1.70557945966721E-08;-7.57504254579544E-08;100 nA
-0.3759765625;9.74643697539261;-1.89208984375E-08;-0.375518798828125;1;164;1.70557945966721E-08;-7.57504254579544E-08;100 nA
-0.37841796875;9.77085097533097;-1.971435546875E-08;-0.37799072265625;1;165;1.70557945966721E-08;-7.57504254579544E-08;100 nA
-0.380859375;9.79526497526933;-2.130126953125E-08;-0.38031005859375;1;166;1.70557945966721E-08;-7.57504254579544E-08;100 nA
-0.38330078125;9.81967897520769;-2.13592529296875E-08;-0.382843017578125;1;167;1.70557945966721E-08;-7.57504254579544E-08;100 nA
-0.3857421875;9.84409297514605;-2.03826904296875E-08;-0.385284423828125;1;168;1.70557945966721E-08;-7.57504254579544E-08;100 nA
-0.38818359375;9.86850697508441;-2.099609375E-08;-0.3876953125;1;169;1.70557945966721E-08;-7.57504254579544E-08;100 nA
-0.390625;9.89292097502278;-2.0782470703125E-08;-0.390167236328125;1;170;1.70557945966721E-08;-7.57504254579544E-08;100 nA
-0.39306640625;9.91733497496114;-2.0233154296875E-08;-0.392578125;1;171;1.70557945966721E-08;-7.57504254579544E-08;100 nA
-0.3955078125;9.9417489748995;-2.2705078125E-08;-0.39501953125;1;172;1.70557945966721E-08;-7.57504254579544E-08;100 nA
-0.39794921875;9.96616297483786;-2.0294189453125E-08;-0.397491455078125;1;173;1.70557945966721E-08;-7.57504254579544E-08;100 nA
-0.400390625;9.99057697477622;-2.288818359375E-08;-0.399932861328125;1;174;1.70557945966721E-08;-7.57504254579544E-08;100 nA
-0.40283203125;10.0149909747146;-1.8798828125E-08;-0.40234375;1;175;1.70557945966721E-08;-7.57504254579544E-08;100 nA
-0.4052734375;10.0394049746529;-2.4505615234375E-08;-0.40478515625;1;176;1.70557945966721E-08;-7.57504254579544E-08;100 nA
-0.40771484375;10.0638189745913;-1.885986328125E-08;-0.407196044921875;1;177;1.70557945966721E-08;-7.57504254579544E-08;100 nA
-0.41015625;10.0882329745297;-2.3162841796875E-08;-0.40972900390625;1;178;1.70557945966721E-08;-7.57504254579544E-08;100 nA
-0.41259765625;10.112646974468;-2.130126953125E-08;-0.412078857421875;1;179;1.70557945966721E-08;-7.57504254579544E-08;100 nA
-0.4150390625;10.1370609744064;-2.04132080078125E-08;-0.414520263671875;1;180;1.70557945966721E-08;-7.57504254579544E-08;100 nA
-0.41748046875;10.1614749743447;-1.9989013671875E-08;-0.4169921875;1;181;1.70557945966721E-08;-7.57504254579544E-08;100 nA
-0.419921875;10.1858889742831;-1.83258056640625E-08;-0.419464111328125;1;182;1.70557945966721E-08;-7.57504254579544E-08;100 nA
-0.42236328125;10.2103029742215;-1.62078857421875E-08;-0.42181396484375;1;183;1.70557945966721E-08;-7.57504254579544E-08;100 nA
-0.4248046875;10.2347169741598;-1.4190673828125E-08;-0.42431640625;1;184;1.70557945966721E-08;-7.57504254579544E-08;100 nA
-0.42724609375;10.2591309740982;-1.84600830078125E-08;-0.426727294921875;1;185;1.70557945966721E-08;-7.57504254579544E-08;100 nA
-0.4296875;10.2835449740365;-1.4007568359375E-08;-0.429229736328125;1;186;1.70557945966721E-08;-7.57504254579544E-08;100 nA
-0.43212890625;10.3079589739749;-1.6387939453125E-08;-0.431640625;1;187;1.70557945966721E-08;-7.57504254579544E-08;100 nA
-0.4345703125;10.3323729739133;-1.40380859375E-08;-0.434051513671875;1;188;1.70557945966721E-08;-7.57504254579544E-08;100 nA
-0.43701171875;10.3567869738516;-1.8670654296875E-08;-0.436492919921875;1;189;1.70557945966721E-08;-7.57504254579544E-08;100 nA
-0.439453125;10.38120097379;-1.263427734375E-08;-0.43896484375;1;190;1.70557945966721E-08;-7.57504254579544E-08;100 nA
-0.44189453125;10.4056149737283;-1.920166015625E-08;-0.441375732421875;1;191;1.70557945966721E-08;-7.57504254579544E-08;100 nA
-0.4443359375;10.4300289736667;-1.46453857421875E-08;-0.44384765625;1;192;1.70557945966721E-08;-7.57504254579544E-08;100 nA
-0.44677734375;10.4544429736051;-1.82830810546875E-08;-0.4462890625;1;193;1.70557945966721E-08;-7.57504254579544E-08;100 nA
-0.44921875;10.4788569735434;-1.751708984375E-08;-0.448699951171875;1;194;1.70557945966721E-08;-7.57504254579544E-08;100 nA
-0.45166015625;10.5032709734818;-1.6339111328125E-08;-0.451171875;1;195;1.70557945966721E-08;-7.57504254579544E-08;100 nA
-0.44921875;10.5276849734202;-1.6290283203125E-08;-0.448699951171875;1;196;1.70557945966721E-08;-7.57504254579544E-08;100 nA
-0.44677734375;10.5520989733585;-1.617431640625E-08;-0.4462890625;1;197;1.70557945966721E-08;-7.57504254579544E-08;100 nA
-0.4443359375;10.5765129732969;-1.56005859375E-08;-0.443817138671875;1;198;1.70557945966721E-08;-7.57504254579544E-08;100 nA
-0.44189453125;10.6009269732352;-1.12335205078125E-08;-0.44146728515625;1;199;1.70557945966721E-08;-7.57504254579544E-08;100 nA
-0.439453125;10.6253409731736;-1.5380859375E-08;-0.438995361328125;1;200;1.70557945966721E-08;-7.57504254579544E-08;100 nA
-0.43701171875;10.649754973112;-1.165771484375E-08;-0.436492919921875;1;201;1.70557945966721E-08;-7.57504254579544E-08;100 nA
-0.4345703125;10.6741689730503;-1.38824462890625E-08;-0.434051513671875;1;202;1.70557945966721E-08;-7.57504254579544E-08;100 nA
-0.43212890625;10.6985829729887;-1.06201171875E-08;-0.431671142578125;1;203;1.70557945966721E-08;-7.57504254579544E-08;100 nA
-0.4296875;10.722996972927;-1.52557373046875E-08;-0.429107666015625;1;204;1.70557945966721E-08;-7.57504254579544E-08;100 nA
-0.42724609375;10.7474109728654;-8.4228515625E-09;-0.42681884765625;1;205;1.70557945966721E-08;-7.57504254579544E-08;100 nA
-0.4248046875;10.7718249728038;-1.41876220703125E-08;-0.424346923828125;1;206;1.70557945966721E-08;-7.57504254579544E-08;100 nA
-0.42236328125;10.7962389727421;-9.72900390625E-09;-0.421875;1;207;1.70557945966721E-08;-7.57504254579544E-08;100 nA
-0.419921875;10.8206529726805;-1.1383056640625E-08;-0.41943359375;1;208;1.70557945966721E-08;-7.57504254579544E-08;100 nA
-0.41748046875;10.8450669726188;-1.148681640625E-08;-0.41693115234375;1;209;1.70557945966721E-08;-7.57504254579544E-08;100 nA
-0.4150390625;10.8694809725572;-1.0650634765625E-08;-0.414581298828125;1;210;1.70557945966721E-08;-7.57504254579544E-08;100 nA
-0.41259765625;10.8938949724956;-9.4329833984375E-09;-0.412109375;1;211;1.70557945966721E-08;-7.57504254579544E-08;100 nA
-0.41015625;10.9183089724339;-9.8114013671875E-09;-0.409637451171875;1;212;1.70557945966721E-08;-7.57504254579544E-08;100 nA
-0.40771484375;10.9427229723723;-1.14898681640625E-08;-0.40728759765625;1;213;1.70557945966721E-08;-7.57504254579544E-08;100 nA
-0.4052734375;10.9671369723106;-6.4422607421875E-09;-0.40478515625;1;214;1.70557945966721E-08;-7.57504254579544E-08;100 nA
-0.40283203125;10.991550972249;-9.4940185546875E-09;-0.402313232421875;1;215;1.70557945966721E-08;-7.57504254579544E-08;100 nA
-0.400390625;11.0159649721874;-7.5469970703125E-09;-0.399932861328125;1;216;1.70557945966721E-08;-7.57504254579544E-08;100 nA
-0.39794921875;11.0403789721257;-9.82666015625E-09;-0.397491455078125;1;217;1.70557945966721E-08;-7.57504254579544E-08;100 nA
-0.3955078125;11.0647929720641;-5.1116943359375E-09;-0.39508056640625;1;218;1.70557945966721E-08;-7.57504254579544E-08;100 nA
-0.39306640625;11.0892069720024;-1.1181640625E-08;-0.392608642578125;1;219;1.70557945966721E-08;-7.57504254579544E-08;100 nA
-0.390625;11.1136209719408;-4.9407958984375E-09;-0.390106201171875;1;220;1.70557945966721E-08;-7.57504254579544E-08;100 nA
-0.38818359375;11.1380349718792;-9.50927734375E-09;-0.387725830078125;1;221;1.70557945966721E-08;-7.57504254579544E-08;100 nA
-0.3857421875;11.1624489718175;-6.28662109375E-09;-0.38525390625;1;222;1.70557945966721E-08;-7.57504254579544E-08;100 nA
-0.38330078125;11.1868629717559;-6.6680908203125E-09;-0.3828125;1;223;1.70557945966721E-08;-7.57504254579544E-08;100 nA
-0.380859375;11.2112769716942;-7.952880859375E-09;-0.38037109375;1;224;1.70557945966721E-08;-7.57504254579544E-08;100 nA
-0.37841796875;11.2356909716326;-7.18994140625E-09;-0.377960205078125;1;225;1.70557945966721E-08;-7.57504254579544E-08;100 nA
-0.3759765625;11.260104971571;-6.0211181640625E-09;-0.375457763671875;1;226;1.70557945966721E-08;-7.57504254579544E-08;100 nA
-0.37353515625;11.2845189715093;-5.18798828125E-09;-0.3731689453125;1;227;1.70557945966721E-08;-7.57504254579544E-08;100 nA
-0.37109375;11.3089329714477;-8.6639404296875E-09;-0.37066650390625;1;228;1.70557945966721E-08;-7.57504254579544E-08;100 nA
-0.36865234375;11.333346971386;-3.448486328125E-09;-0.3681640625;1;229;1.70557945966721E-08;-7.57504254579544E-08;100 nA
-0.3662109375;11.3577609713244;-5.3863525390625E-09;-0.365753173828125;1;230;1.70557945966721E-08;-7.57504254579544E-08;100 nA
-0.36376953125;11.3821749712628;-3.9154052734375E-09;-0.363372802734375;1;231;1.70557945966721E-08;-7.57504254579544E-08;100 nA
-0.361328125;11.4065889712011;-6.5673828125E-09;-0.36090087890625;1;232;1.70557945966721E-08;-7.57504254579544E-08;100 nA
-0.35888671875;11.4310029711395;-1.5899658203125E-09;-0.35845947265625;1;233;1.70557945966721E-08;-7.57504254579544E-08;100 nA
-0.3564453125;11.4554169710779;-6.1767578125E-09;-0.355987548828125;1;234;1.70557945966721E-08;-7.57504254579544E-08;100 nA
-0.35400390625;11.4798309710162;-1.4434814453125E-09;-0.35357666015625;1;235;1.70557945966721E-08;-7.57504254579544E-08;100 nA
-0.3515625;11.5042449709546;-4.2083740234375E-09;-0.35113525390625;1;236;1.70557945966721E-08;-7.57504254579544E-08;100 nA
-0.34912109375;11.5286589708929;-3.0181884765625E-09;-0.34869384765625;1;237;1.70557945966721E-08;-7.57504254579544E-08;100 nA
-0.3466796875;11.5530729708313;-3.11279296875E-10;-0.3463134765625;1;238;1.70557945966721E-08;-7.57504254579544E-08;100 nA
-0.34423828125;11.5774869707697;-8.23974609375E-10;-0.34375;1;239;1.70557945966721E-08;-7.57504254579544E-08;100 nA
-0.341796875;11.601900970708;-1.397705078125E-09;-0.341339111328125;1;240;1.70557945966721E-08;-7.57504254579544E-08;100 nA
-0.33935546875;11.6263149706464;2.0416259765625E-09;-0.33892822265625;1;241;1.70557945966721E-08;-7.57504254579544E-08;100 nA
-0.3369140625;11.6507289705847;3.887939453125E-09;-0.336456298828125;1;242;1.70557945966721E-08;-7.57504254579544E-08;100 nA
-0.33447265625;11.6751429705231;2.5177001953125E-09;-0.334075927734375;1;243;1.70557945966721E-08;-7.57504254579544E-08;100 nA
-0.33203125;11.6995569704615;6.2744140625E-09;-0.33160400390625;1;244;1.70557945966721E-08;-7.57504254579544E-08;100 nA
-0.32958984375;11.7239709703998;7.01904296875E-09;-0.329193115234375;1;245;1.70557945966721E-08;-7.57504254579544E-08;100 nA
-0.3271484375;11.7483849703382;1.05743408203125E-08;-0.3267822265625;1;246;1.70557945966721E-08;-7.57504254579544E-08;100 nA
-0.32470703125;11.7727989702765;8.148193359375E-09;-0.324371337890625;1;247;1.70557945966721E-08;-7.57504254579544E-08;100 nA
-0.322265625;11.7972129702149;1.60858154296875E-08;-0.321868896484375;1;248;1.70557945966721E-08;-7.57504254579544E-08;100 nA
-0.31982421875;11.8216269701533;1.2451171875E-08;-0.319488525390625;1;249;1.70557945966721E-08;-7.57504254579544E-08;100 nA
-0.3173828125;11.8460409700916;1.82464599609375E-08;-0.317047119140625;1;250;1.70557945966721E-08;-7.57504254579544E-08;100 nA
-0.31494140625;11.87045497003;1.81884765625E-08;-0.314605712890625;1;251;1.70557945966721E-08;-7.57504254579544E-08;100 nA
-0.3125;11.8948689699683;1.8707275390625E-08;-0.312164306640625;1;252;1.70557945966721E-08;-7.57504254579544E-08;100 nA
-0.31005859375;11.9192829699067;2.2186279296875E-08;-0.309661865234375;1;253;1.70557945966721E-08;-7.57504254579544E-08;100 nA
-0.3076171875;11.9436969698451;2.435302734375E-08;-0.30731201171875;1;254;1.70557945966721E-08;-7.57504254579544E-08;100 nA
-0.30517578125;11.9681109697834;2.3193359375E-08;-0.30474853515625;1;255;1.70557945966721E-08;-7.57504254579544E-08;100 nA
-0.302734375;11.9925249697218;2.3529052734375E-08;-0.3023681640625;1;256;1.70557945966721E-08;-7.57504254579544E-08;100 nA
-0.30029296875;12.0169389696601;2.655029296875E-08;-0.29986572265625;1;257;1.70557945966721E-08;-7.57504254579544E-08;100 nA
-0.2978515625;12.0413529695985;2.4444580078125E-08;-0.297515869140625;1;258;1.70557945966721E-08;-7.57504254579544E-08;100 nA
-0.29541015625;12.0657669695369;2.40478515625E-08;-0.2950439453125;1;259;1.70557945966721E-08;-7.57504254579544E-08;100 nA
-0.29296875;12.0901809694752;2.3040771484375E-08;-0.2926025390625;1;260;1.70557945966721E-08;-7.57504254579544E-08;100 nA
-0.29052734375;12.1145949694136;2.3956298828125E-08;-0.2901611328125;1;261;1.70557945966721E-08;-7.57504254579544E-08;100 nA
-0.2880859375;12.1390089693519;1.7669677734375E-08;-0.2877197265625;1;262;1.70557945966721E-08;-7.57504254579544E-08;100 nA
-0.28564453125;12.1634229692903;2.1697998046875E-08;-0.285308837890625;1;263;1.70557945966721E-08;-7.57504254579544E-08;100 nA
-0.283203125;12.1878369692287;1.591796875E-08;-0.282867431640625;1;264;1.70557945966721E-08;-7.57504254579544E-08;100 nA
-0.28076171875;12.212250969167;1.6778564453125E-08;-0.280426025390625;1;265;1.70557945966721E-08;-7.57504254579544E-08;100 nA
-0.2783203125;12.2366649691054;1.4373779296875E-08;-0.2779541015625;1;266;1.70557945966721E-08;-7.57504254579544E-08;100 nA
-0.27587890625;12.2610789690438;1.19659423828125E-08;-0.27545166015625;1;267;1.70557945966721E-08;-7.57504254579544E-08;100 nA
-0.2734375;12.2854929689821;1.13189697265625E-08;-0.2730712890625;1;268;1.70557945966721E-08;-7.57504254579544E-08;100 nA
-0.27099609375;12.3099069689205;1.07421875E-08;-0.270599365234375;1;269;1.70557945966721E-08;-7.57504254579544E-08;100 nA
-0.2685546875;12.3343209688588;9.5458984375E-09;-0.2681884765625;1;270;1.70557945966721E-08;-7.57504254579544E-08;100 nA
-0.26611328125;12.3587349687972;5.548095703125E-09;-0.265777587890625;1;271;1.70557945966721E-08;-7.57504254579544E-08;100 nA
-0.263671875;12.3831489687356;8.331298828125E-09;-0.263275146484375;1;272;1.70557945966721E-08;-7.57504254579544E-08;100 nA
-0.26123046875;12.4075629686739;4.8828125E-09;-0.2608642578125;1;273;1.70557945966721E-08;-7.57504254579544E-08;100 nA
-0.2587890625;12.4319769686123;5.7647705078125E-09;-0.2584228515625;1;274;1.70557945966721E-08;-7.57504254579544E-08;100 nA
-0.25634765625;12.4563909685506;2.227783203125E-09;-0.25592041015625;1;275;1.70557945966721E-08;-7.57504254579544E-08;100 nA
-0.25390625;12.480804968489;6.1920166015625E-09;-0.25360107421875;1;276;1.70557945966721E-08;-7.57504254579544E-08;100 nA
-0.25146484375;12.5052189684274;2.5634765625E-10;-0.251129150390625;1;277;1.70557945966721E-08;-7.57504254579544E-08;100 nA
-0.2490234375;12.5296329683657;4.7576904296875E-09;-0.248687744140625;1;278;1.70557945966721E-08;-7.57504254579544E-08;100 nA
-0.24658203125;12.5540469683041;3.631591796875E-10;-0.2462158203125;1;279;1.70557945966721E-08;-7.57504254579544E-08;100 nA
-0.244140625;12.5784609682424;2.18505859375E-09;-0.2437744140625;1;280;1.70557945966721E-08;-7.57504254579544E-08;100 nA
-0.24169921875;12.6028749681808;1.9622802734375E-09;-0.241302490234375;1;281;1.70557945966721E-08;-7.57504254579544E-08;100 nA
-0.2392578125;12.6272889681192;1.1016845703125E-09;-0.238922119140625;1;282;1.70557945966721E-08;-7.57504254579544E-08;100 nA
-0.23681640625;12.6517029680575;3.60107421875E-10;-0.236480712890625;1;283;1.70557945966721E-08;-7.57504254579544E-08;100 nA
-0.234375;12.6761169679959;9.063720703125E-10;-0.2340087890625;1;284;1.70557945966721E-08;-7.57504254579544E-08;100 nA
-0.23193359375;12.7005309679342;3.25927734375E-09;-0.231597900390625;1;285;1.70557945966721E-08;-7.57504254579544E-08;100 nA
-0.2294921875;12.7249449678726;-1.177978515625E-09;-0.229156494140625;1;286;1.70557945966721E-08;-7.57504254579544E-08;100 nA
-0.22705078125;12.749358967811;1.9378662109375E-09;-0.226654052734375;1;287;1.70557945966721E-08;-7.57504254579544E-08;100 nA
-0.224609375;12.7737729677493;3.936767578125E-10;-0.224273681640625;1;288;1.70557945966721E-08;-7.57504254579544E-08;100 nA
-0.22216796875;12.7981869676877;2.3651123046875E-09;-0.221832275390625;1;289;1.70557945966721E-08;-7.57504254579544E-08;100 nA
-0.2197265625;12.822600967626;-1.94091796875E-09;-0.2193603515625;1;290;1.70557945966721E-08;-7.57504254579544E-08;100 nA
-0.21728515625;12.8470149675644;3.7139892578125E-09;-0.216949462890625;1;291;1.70557945966721E-08;-7.57504254579544E-08;100 nA
-0.21484375;12.8714289675028;-2.3681640625E-09;-0.21441650390625;1;292;1.70557945966721E-08;-7.57504254579544E-08;100 nA
-0.21240234375;12.8958429674411;2.337646484375E-09;-0.2120361328125;1;293;1.70557945966721E-08;-7.57504254579544E-08;100 nA
-0.2099609375;12.9202569673795;-6.2255859375E-10;-0.209625244140625;1;294;1.70557945966721E-08;-7.57504254579544E-08;100 nA
-0.20751953125;12.9446709673178;-8.056640625E-10;-0.20721435546875;1;295;1.70557945966721E-08;-7.57504254579544E-08;100 nA
-0.205078125;12.9690849672562;7.14111328125E-10;-0.20477294921875;1;296;1.70557945966721E-08;-7.57504254579544E-08;100 nA
-0.20263671875;12.9934989671946;4.33349609375E-10;-0.20233154296875;1;297;1.70557945966721E-08;-7.57504254579544E-08;100 nA
-0.2001953125;13.0179129671329;-3.997802734375E-10;-0.19989013671875;1;298;1.70557945966721E-08;-7.57504254579544E-08;100 nA
-0.19775390625;13.0423269670713;-9.552001953125E-10;-0.197479248046875;1;299;1.70557945966721E-08;-7.57504254579544E-08;100 nA
-0.1953125;13.0667409670097;3.4576416015625E-09;-0.19500732421875;1;300;1.70557945966721E-08;-7.57504254579544E-08;100 nA
-0.19287109375;13.091154966948;-7.87353515625E-10;-0.19256591796875;1;301;1.70557945966721E-08;-7.57504254579544E-08;100 nA
-0.1904296875;13.1155689668864;1.11083984375E-09;-0.1900634765625;1;302;1.70557945966721E-08;-7.57504254579544E-08;100 nA
-0.18798828125;13.1399829668247;-5.096435546875E-10;-0.1876220703125;1;303;1.70557945966721E-08;-7.57504254579544E-08;100 nA
-0.185546875;13.1643969667631;3.106689453125E-09;-0.18524169921875;1;304;1.70557945966721E-08;-7.57504254579544E-08;100 nA
-0.18310546875;13.1888109667015;-2.960205078125E-09;-0.182769775390625;1;305;1.70557945966721E-08;-7.57504254579544E-08;100 nA
-0.1806640625;13.2132249666398;4.486083984375E-09;-0.180389404296875;1;306;1.70557945966721E-08;-7.57504254579544E-08;100 nA
-0.17822265625;13.2376389665782;-2.532958984375E-09;-0.177886962890625;1;307;1.70557945966721E-08;-7.57504254579544E-08;100 nA
-0.17578125;13.2620529665165;3.41796875E-09;-0.17547607421875;1;308;1.70557945966721E-08;-7.57504254579544E-08;100 nA
-0.17333984375;13.2864669664549;4.7607421875E-10;-0.173004150390625;1;309;1.70557945966721E-08;-7.57504254579544E-08;100 nA
-0.1708984375;13.3108809663933;-4.058837890625E-10;-0.170623779296875;1;310;1.70557945966721E-08;-7.57504254579544E-08;100 nA
-0.16845703125;13.3352949663316;-3.35693359375E-11;-0.168182373046875;1;311;1.70557945966721E-08;-7.57504254579544E-08;100 nA
-0.166015625;13.35970896627;1.4556884765625E-09;-0.16571044921875;1;312;1.70557945966721E-08;-7.57504254579544E-08;100 nA
-0.16357421875;13.3841229662083;1.35498046875E-09;-0.163299560546875;1;313;1.70557945966721E-08;-7.57504254579544E-08;100 nA
-0.1611328125;13.4085369661467;-1.300048828125E-09;-0.16082763671875;1;314;1.70557945966721E-08;-7.57504254579544E-08;100 nA
-0.15869140625;13.4329509660851;3.2012939453125E-09;-0.158477783203125;1;315;1.70557945966721E-08;-7.57504254579544E-08;100 nA
-0.15625;13.4573649660234;7.32421875E-11;-0.156005859375;1;316;1.70557945966721E-08;-7.57504254579544E-08;100 nA
-0.15380859375;13.4817789659618;1.7242431640625E-09;-0.15362548828125;1;317;1.70557945966721E-08;-7.57504254579544E-08;100 nA
-0.1513671875;13.5061929659001;-5.096435546875E-10;-0.15106201171875;1;318;1.70557945966721E-08;-7.57504254579544E-08;100 nA
-0.14892578125;13.5306069658385;4.2816162109375E-09;-0.148681640625;1;319;1.70557945966721E-08;-7.57504254579544E-08;100 nA
-0.146484375;13.5550209657769;-1.7974853515625E-09;-0.146209716796875;1;320;1.70557945966721E-08;-7.57504254579544E-08;100 nA
-0.14404296875;13.5794349657152;3.533935546875E-09;-0.143768310546875;1;321;1.70557945966721E-08;-7.57504254579544E-08;100 nA
-0.1416015625;13.6038489656536;-7.2021484375E-10;-0.141357421875;1;322;1.70557945966721E-08;-7.57504254579544E-08;100 nA
-0.13916015625;13.6282629655919;1.3092041015625E-09;-0.138885498046875;1;323;1.70557945966721E-08;-7.57504254579544E-08;100 nA
-0.13671875;13.6526769655303;1.9012451171875E-09;-0.136444091796875;1;324;1.70557945966721E-08;-7.57504254579544E-08;100 nA
-0.13427734375;13.6770909654687;9.490966796875E-10;-0.134033203125;1;325;1.70557945966721E-08;-7.57504254579544E-08;100 nA
-0.1318359375;13.701504965407;5.55419921875E-10;-0.131622314453125;1;326;1.70557945966721E-08;-7.57504254579544E-08;100 nA
-0.12939453125;13.7259189653454;1.4404296875E-09;-0.129119873046875;1;327;1.70557945966721E-08;-7.57504254579544E-08;100 nA
-0.126953125;13.7503329652837;3.2867431640625E-09;-0.126739501953125;1;328;1.70557945966721E-08;-7.57504254579544E-08;100 nA
-0.12451171875;13.7747469652221;-6.53076171875E-10;-0.124359130859375;1;329;1.70557945966721E-08;-7.57504254579544E-08;100 nA
-0.1220703125;13.7991609651605;3.045654296875E-09;-0.121856689453125;1;330;1.70557945966721E-08;-7.57504254579544E-08;100 nA
-0.11962890625;13.8235749650988;1.1260986328125E-09;-0.11944580078125;1;331;1.70557945966721E-08;-7.57504254579544E-08;100 nA
-0.1171875;13.8479889650372;2.8106689453125E-09;-0.11700439453125;1;332;1.70557945966721E-08;-7.57504254579544E-08;100 nA
-0.11474609375;13.8724029649755;-1.068115234375E-09;-0.114501953125;1;333;1.70557945966721E-08;-7.57504254579544E-08;100 nA
-0.1123046875;13.8968169649139;4.833984375E-09;-0.112030029296875;1;334;1.70557945966721E-08;-7.57504254579544E-08;100 nA
-0.10986328125;13.9212309648523;-5.889892578125E-10;-0.109619140625;1;335;1.70557945966721E-08;-7.57504254579544E-08;100 nA
-0.107421875;13.9456449647906;3.7567138671875E-09;-0.107147216796875;1;336;1.70557945966721E-08;-7.57504254579544E-08;100 nA
-0.10498046875;13.970058964729;6.805419921875E-10;-0.104736328125;1;337;1.70557945966721E-08;-7.57504254579544E-08;100 nA
-0.1025390625;13.9944729646674;9.613037109375E-10;-0.102294921875;1;338;1.70557945966721E-08;-7.57504254579544E-08;100 nA
-0.10009765625;14.0188869646057;2.3529052734375E-09;-0.099853515625;1;339;1.70557945966721E-08;-7.57504254579544E-08;100 nA
-0.09765625;14.0433009645441;2.093505859375E-09;-0.097412109375;1;340;1.70557945966721E-08;-7.57504254579544E-08;100 nA
-0.09521484375;14.0677149644824;1.2298583984375E-09;-0.094970703125;1;341;1.70557945966721E-08;-7.57504254579544E-08;100 nA
-0.0927734375;14.0921289644208;6.591796875E-10;-0.092559814453125;1;342;1.70557945966721E-08;-7.57504254579544E-08;100 nA
-0.09033203125;14.1165429643592;5.133056640625E-09;-0.090087890625;1;343;1.70557945966721E-08;-7.57504254579544E-08;100 nA
-0.087890625;14.1409569642975;7.26318359375E-10;-0.087738037109375;1;344;1.70557945966721E-08;-7.57504254579544E-08;100 nA
-0.08544921875;14.1653709642359;2.9327392578125E-09;-0.085235595703125;1;345;1.70557945966721E-08;-7.57504254579544E-08;100 nA
-0.0830078125;14.1897849641742;9.246826171875E-10;-0.082763671875;1;346;1.70557945966721E-08;-7.57504254579544E-08;100 nA
-0.08056640625;14.2141989641126;4.4342041015625E-09;-0.080352783203125;1;347;1.70557945966721E-08;-7.57504254579544E-08;100 nA
-0.078125;14.238612964051;-1.092529296875E-09;-0.077911376953125;1;348;1.70557945966721E-08;-7.57504254579544E-08;100 nA
-0.07568359375;14.2630269639893;4.718017578125E-09;-0.075439453125;1;349;1.70557945966721E-08;-7.57504254579544E-08;100 nA
-0.0732421875;14.2874409639277;-4.425048828125E-10;-0.073028564453125;1;350;1.70557945966721E-08;-7.57504254579544E-08;100 nA
-0.07080078125;14.311854963866;3.1219482421875E-09;-0.070556640625;1;351;1.70557945966721E-08;-7.57504254579544E-08;100 nA
-0.068359375;14.3362689638044;2.3468017578125E-09;-0.068145751953125;1;352;1.70557945966721E-08;-7.57504254579544E-08;100 nA
-0.06591796875;14.3606829637428;1.0467529296875E-09;-0.065704345703125;1;353;1.70557945966721E-08;-7.57504254579544E-08;100 nA
-0.0634765625;14.3850969636811;1.7333984375E-09;-0.063262939453125;1;354;1.70557945966721E-08;-7.57504254579544E-08;100 nA
-0.06103515625;14.4095109636195;2.630615234375E-09;-0.06085205078125;1;355;1.70557945966721E-08;-7.57504254579544E-08;100 nA
-0.05859375;14.4339249635578;2.7374267578125E-09;-0.058441162109375;1;356;1.70557945966721E-08;-7.57504254579544E-08;100 nA
-0.05615234375;14.4583389634962;-3.35693359375E-11;-0.0560302734375;1;357;1.70557945966721E-08;-7.57504254579544E-08;100 nA
-0.0537109375;14.4827529634346;4.4342041015625E-09;-0.053497314453125;1;358;1.70557945966721E-08;-7.57504254579544E-08;100 nA
-0.05126953125;14.5071669633729;1.62353515625E-09;-0.05108642578125;1;359;1.70557945966721E-08;-7.57504254579544E-08;100 nA
-0.048828125;14.5315809633113;3.045654296875E-09;-0.048577880859375;1;360;1.70557945966721E-08;-7.57504254579544E-08;100 nA
-0.04638671875;14.5559949632496;7.01904296875E-10;-0.046142578125;1;361;1.70557945966721E-08;-7.57504254579544E-08;100 nA
-0.0439453125;14.580408963188;5.413818359375E-09;-0.0437286376953125;1;362;1.70557945966721E-08;-7.57504254579544E-08;100 nA
-0.04150390625;14.6048229631264;-9.33837890625E-10;-0.0412872314453125;1;363;1.70557945966721E-08;-7.57504254579544E-08;100 nA
-0.0390625;14.6292369630647;5.0445556640625E-09;-0.038818359375;1;364;1.70557945966721E-08;-7.57504254579544E-08;100 nA
-0.03662109375;14.6536509630031;6.927490234375E-10;-0.03641357421875;1;365;1.70557945966721E-08;-7.57504254579544E-08;100 nA
-0.0341796875;14.6780649629414;2.9693603515625E-09;-0.033929443359375;1;366;1.70557945966721E-08;-7.57504254579544E-08;100 nA
-0.03173828125;14.7024789628798;2.984619140625E-09;-0.031524658203125;1;367;1.70557945966721E-08;-7.57504254579544E-08;100 nA
-0.029296875;14.7268929628182;1.84326171875E-09;-0.02906494140625;1;368;1.70557945966721E-08;-7.57504254579544E-08;100 nA
-0.02685546875;14.7513069627565;2.325439453125E-09;-0.0266265869140625;1;369;1.70557945966721E-08;-7.57504254579544E-08;100 nA
-0.0244140625;14.7757209626949;2.7862548828125E-09;-0.02418212890625;1;370;1.70557945966721E-08;-7.57504254579544E-08;100 nA
-0.02197265625;14.8001349626333;4.3182373046875E-09;-0.0217559814453125;1;371;1.70557945966721E-08;-7.57504254579544E-08;100 nA
-0.01953125;14.8245489625716;-9.1552734375E-12;-0.0193389892578125;1;372;1.70557945966721E-08;-7.57504254579544E-08;100 nA
-0.01708984375;14.84896296251;4.69970703125E-09;-0.0168701171875;1;373;1.70557945966721E-08;-7.57504254579544E-08;100 nA
-0.0146484375;14.8733769624483;2.9449462890625E-09;-0.0144439697265625;1;374;1.70557945966721E-08;-7.57504254579544E-08;100 nA
-0.01220703125;14.8977909623867;4.0985107421875E-09;-0.0119873046875;1;375;1.70557945966721E-08;-7.57504254579544E-08;100 nA
-0.009765625;14.9222049623251;1.0467529296875E-09;-0.0095947265625;1;376;1.70557945966721E-08;-7.57504254579544E-08;100 nA
-0.00732421875;14.9466189622634;6.1859130859375E-09;-0.0071533203125;1;377;1.70557945966721E-08;-7.57504254579544E-08;100 nA
-0.0048828125;14.9710329622018;5.889892578125E-10;-0.00472106933593749;1;378;1.70557945966721E-08;-7.57504254579544E-08;100 nA
-0.00244140625;14.9954469621401;4.8004150390625E-09;-0.002288818359375;1;379;1.70557945966721E-08;-7.57504254579544E-08;100 nA
0;15.0198609620785;1.9134521484375E-09;0.000173950195312494;1;380;1.70557945966721E-08;-7.57504254579544E-08;100 nA
