Potential applied (V);Time (s);WE(1).Current (A);WE(1).Potential (V);Scan;Index;Q+;Q-;Current range
0.00244140625;5.77795698541206;1.0406494140625E-09;0.0026092529296875;1;1;2.28485465049744E-08;-4.79014217853546E-08;100 nA
0.0048828125;5.80237098535042;-5.096435546875E-10;0.00507202148437499;1;2;2.28485465049744E-08;-4.79014217853546E-08;100 nA
0.00732421875;5.82678498528878;-2.716064453125E-10;0.00751647949218751;1;3;2.28485465049744E-08;-4.79014217853546E-08;100 nA
0.009765625;5.85119898522714;-8.880615234375E-10;0.0099639892578125;1;4;2.28485465049744E-08;-4.79014217853546E-08;100 nA
0.01220703125;5.8756129851655;3.9215087890625E-09;0.0123809814453125;1;5;2.28485465049744E-08;-4.79014217853546E-08;100 nA
0.009765625;5.90002698510386;-2.197265625E-09;0.00995788574218751;1;6;2.28485465049744E-08;-4.79014217853546E-08;100 nA
0.00732421875;5.92444098504222;5.7373046875E-10;0.0075347900390625;1;7;2.28485465049744E-08;-4.79014217853546E-08;100 nA
0.0048828125;5.94885498498058;-1.0894775390625E-09;0.005084228515625;1;8;2.28485465049744E-08;-4.79014217853546E-08;100 nA
0.00244140625;5.97326898491895;1.89208984375E-09;0.00261840820312501;1;9;2.28485465049744E-08;-4.79014217853546E-08;100 nA
0;5.99768298485731;-3.5888671875E-09;0.00018310546875;1;10;2.28485465049744E-08;-4.79014217853546E-08;100 nA
-0.00244140625;6.02209698479567;1.702880859375E-09;-0.00224609375;1;11;2.28485465049744E-08;-4.79014217853546E-08;100 nA
-0.0048828125;6.04651098473403;-2.9296875E-09;-0.00469360351562501;1;12;2.28485465049744E-08;-4.79014217853546E-08;100 nA
-0.00732421875;6.07092498467239;-2.99072265625E-10;-0.007122802734375;1;13;2.28485465049744E-08;-4.79014217853546E-08;100 nA
-0.009765625;6.09533898461075;-7.568359375E-10;-0.00958862304687499;1;14;2.28485465049744E-08;-4.79014217853546E-08;100 nA
-0.01220703125;6.11975298454911;-3.0242919921875E-09;-0.011981201171875;1;15;2.28485465049744E-08;-4.79014217853546E-08;100 nA
-0.0146484375;6.14416698448747;-1.617431640625E-09;-0.0144561767578125;1;16;2.28485465049744E-08;-4.79014217853546E-08;100 nA
-0.01708984375;6.16858098442583;-1.1016845703125E-09;-0.0168609619140625;1;17;2.28485465049744E-08;-4.79014217853546E-08;100 nA
-0.01953125;6.19299498436419;-1.3214111328125E-09;-0.0193267822265625;1;18;2.28485465049744E-08;-4.79014217853546E-08;100 nA
-0.02197265625;6.21740898430255;-4.3182373046875E-09;-0.021759033203125;1;19;2.28485465049744E-08;-4.79014217853546E-08;100 nA
-0.0244140625;6.24182298424091;2.197265625E-10;-0.024188232421875;1;20;2.28485465049744E-08;-4.79014217853546E-08;100 nA
-0.02685546875;6.26623698417927;-2.6641845703125E-09;-0.026617431640625;1;21;2.28485465049744E-08;-4.79014217853546E-08;100 nA
-0.029296875;6.29065098411763;-1.318359375E-09;-0.0290771484375;1;22;2.28485465049744E-08;-4.79014217853546E-08;100 nA
-0.03173828125;6.31506498405599;-3.1982421875E-09;-0.0315185546875;1;23;2.28485465049744E-08;-4.79014217853546E-08;100 nA
-0.0341796875;6.33947898399435;6.7138671875E-10;-0.033941650390625;1;24;2.28485465049744E-08;-4.79014217853546E-08;100 nA
-0.03662109375;6.36389298393271;-4.4342041015625E-09;-0.0363922119140625;1;25;2.28485465049744E-08;-4.79014217853546E-08;100 nA
-0.0390625;6.38830698387108;-2.01416015625E-10;-0.03883056640625;1;26;2.28485465049744E-08;-4.79014217853546E-08;100 nA
-0.04150390625;6.41272098380944;-4.0191650390625E-09;-0.0412841796875;1;27;2.28485465049744E-08;-4.79014217853546E-08;100 nA
-0.0439453125;6.4371349837478;-1.983642578125E-09;-0.0437164306640625;1;28;2.28485465049744E-08;-4.79014217853546E-08;100 nA
-0.04638671875;6.46154898368616;-1.4739990234375E-09;-0.0461517333984375;1;29;2.28485465049744E-08;-4.79014217853546E-08;100 nA
-0.048828125;6.48596298362452;-2.996826171875E-09;-0.04859619140625;1;30;2.28485465049744E-08;-4.79014217853546E-08;100 nA
-0.05126953125;6.51037698356288;-3.28369140625E-09;-0.051055908203125;1;31;2.28485465049744E-08;-4.79014217853546E-08;100 nA
-0.0537109375;6.53479098350124;-2.239990234375E-09;-0.053497314453125;1;32;2.28485465049744E-08;-4.79014217853546E-08;100 nA
-0.05615234375;6.5592049834396;2.62451171875E-10;-0.055938720703125;1;33;2.28485465049744E-08;-4.79014217853546E-08;100 nA
-0.05859375;6.58361898337796;-4.7393798828125E-09;-0.058441162109375;1;34;2.28485465049744E-08;-4.79014217853546E-08;100 nA
-0.06103515625;6.60803298331632;-1.64794921875E-09;-0.060821533203125;1;35;2.28485465049744E-08;-4.79014217853546E-08;100 nA
-0.0634765625;6.63244698325468;-2.081298828125E-09;-0.063262939453125;1;36;2.28485465049744E-08;-4.79014217853546E-08;100 nA
-0.06591796875;6.65686098319304;-1.995849609375E-09;-0.065673828125;1;37;2.28485465049744E-08;-4.79014217853546E-08;100 nA
-0.068359375;6.6812749831314;-4.2816162109375E-09;-0.06817626953125;1;38;2.28485465049744E-08;-4.79014217853546E-08;100 nA
-0.07080078125;6.70568898306976;1.617431640625E-09;-0.070556640625;1;39;2.28485465049744E-08;-4.79014217853546E-08;100 nA
-0.0732421875;6.73010298300812;-5.1849365234375E-09;-0.073028564453125;1;40;2.28485465049744E-08;-4.79014217853546E-08;100 nA
-0.07568359375;6.75451698294648;-1.690673828125E-09;-0.075469970703125;1;41;2.28485465049744E-08;-4.79014217853546E-08;100 nA
-0.078125;6.77893098288484;-3.40576171875E-09;-0.077911376953125;1;42;2.28485465049744E-08;-4.79014217853546E-08;100 nA
-0.08056640625;6.80334498282321;-4.7119140625E-09;-0.080352783203125;1;43;2.28485465049744E-08;-4.79014217853546E-08;100 nA
-0.0830078125;6.82775898276157;-2.6580810546875E-09;-0.0828857421875;1;44;2.28485465049744E-08;-4.79014217853546E-08;100 nA
-0.08544921875;6.85217298269993;-2.67333984375E-09;-0.08526611328125;1;45;2.28485465049744E-08;-4.79014217853546E-08;100 nA
-0.087890625;6.87658698263829;-3.6102294921875E-09;-0.087646484375;1;46;2.28485465049744E-08;-4.79014217853546E-08;100 nA
-0.09033203125;6.90100098257665;-4.9041748046875E-09;-0.090118408203125;1;47;2.28485465049744E-08;-4.79014217853546E-08;100 nA
-0.0927734375;6.92541498251501;4.8828125E-11;-0.092529296875;1;48;2.28485465049744E-08;-4.79014217853546E-08;100 nA
-0.09521484375;6.94982898245337;-4.144287109375E-09;-0.095001220703125;1;49;2.28485465049744E-08;-4.79014217853546E-08;100 nA
-0.09765625;6.97424298239173;-2.86865234375E-09;-0.097412109375;1;50;2.28485465049744E-08;-4.79014217853546E-08;100 nA
-0.10009765625;6.99865698233009;-3.955078125E-09;-0.099853515625;1;51;2.28485465049744E-08;-4.79014217853546E-08;100 nA
-0.1025390625;7.02307098226845;-1.2786865234375E-09;-0.102294921875;1;52;2.28485465049744E-08;-4.79014217853546E-08;100 nA
-0.10498046875;7.04748498220681;-6.28662109375E-09;-0.104766845703125;1;53;2.28485465049744E-08;-4.79014217853546E-08;100 nA
-0.107421875;7.07189898214517;-3.0517578125E-11;-0.107208251953125;1;54;2.28485465049744E-08;-4.79014217853546E-08;100 nA
-0.10986328125;7.09631298208353;-5.3680419921875E-09;-0.109619140625;1;55;2.28485465049744E-08;-4.79014217853546E-08;100 nA
-0.1123046875;7.12072698202189;-3.076171875E-09;-0.112030029296875;1;56;2.28485465049744E-08;-4.79014217853546E-08;100 nA
-0.11474609375;7.14514098196025;-2.4078369140625E-09;-0.114501953125;1;57;2.28485465049744E-08;-4.79014217853546E-08;100 nA
-0.1171875;7.16955498189861;-4.89501953125E-09;-0.116912841796875;1;58;2.28485465049744E-08;-4.79014217853546E-08;100 nA
-0.11962890625;7.19396898183697;-3.9459228515625E-09;-0.119384765625;1;59;2.28485465049744E-08;-4.79014217853546E-08;100 nA
-0.1220703125;7.21838298177533;-2.978515625E-09;-0.12188720703125;1;60;2.28485465049744E-08;-4.79014217853546E-08;100 nA
-0.12451171875;7.2427969817137;-2.423095703125E-09;-0.124267578125;1;61;2.28485465049744E-08;-4.79014217853546E-08;100 nA
-0.126953125;7.26721098165206;-6.57958984375E-09;-0.12677001953125;1;62;2.28485465049744E-08;-4.79014217853546E-08;100 nA
-0.12939453125;7.29162498159042;-1.6326904296875E-09;-0.129150390625;1;63;2.28485465049744E-08;-4.79014217853546E-08;100 nA
-0.1318359375;7.31603898152878;-4.119873046875E-09;-0.131622314453125;1;64;2.28485465049744E-08;-4.79014217853546E-08;100 nA
-0.13427734375;7.34045298146714;-2.99072265625E-09;-0.13397216796875;1;65;2.28485465049744E-08;-4.79014217853546E-08;100 nA
-0.13671875;7.3648669814055;-5.7220458984375E-09;-0.136383056640625;1;66;2.28485465049744E-08;-4.79014217853546E-08;100 nA
-0.13916015625;7.38928098134386;-1.0955810546875E-09;-0.138885498046875;1;67;2.28485465049744E-08;-4.79014217853546E-08;100 nA
-0.1416015625;7.41369498128222;-6.4971923828125E-09;-0.141265869140625;1;68;2.28485465049744E-08;-4.79014217853546E-08;100 nA
-0.14404296875;7.43810898122058;-1.81884765625E-09;-0.14373779296875;1;69;2.28485465049744E-08;-4.79014217853546E-08;100 nA
-0.146484375;7.46252298115894;-5.06591796875E-09;-0.146209716796875;1;70;2.28485465049744E-08;-4.79014217853546E-08;100 nA
-0.14892578125;7.4869369810973;-4.1717529296875E-09;-0.148651123046875;1;71;2.28485465049744E-08;-4.79014217853546E-08;100 nA
-0.1513671875;7.51135098103566;-2.6031494140625E-09;-0.151123046875;1;72;2.28485465049744E-08;-4.79014217853546E-08;100 nA
-0.15380859375;7.53576498097402;-4.2327880859375E-09;-0.153533935546875;1;73;2.28485465049744E-08;-4.79014217853546E-08;100 nA
-0.15625;7.56017898091238;-4.644775390625E-09;-0.155975341796875;1;74;2.28485465049744E-08;-4.79014217853546E-08;100 nA
-0.15869140625;7.58459298085074;-3.997802734375E-09;-0.15838623046875;1;75;2.28485465049744E-08;-4.79014217853546E-08;100 nA
-0.1611328125;7.6090069807891;-8.36181640625E-10;-0.160888671875;1;76;2.28485465049744E-08;-4.79014217853546E-08;100 nA
-0.16357421875;7.63342098072746;-5.694580078125E-09;-0.163360595703125;1;77;2.28485465049744E-08;-4.79014217853546E-08;100 nA
-0.166015625;7.65783498066583;-3.240966796875E-09;-0.16571044921875;1;78;2.28485465049744E-08;-4.79014217853546E-08;100 nA
-0.16845703125;7.68224898060419;-4.5013427734375E-09;-0.16815185546875;1;79;2.28485465049744E-08;-4.79014217853546E-08;100 nA
-0.1708984375;7.70666298054255;-2.5726318359375E-09;-0.170623779296875;1;80;2.28485465049744E-08;-4.79014217853546E-08;100 nA
-0.17333984375;7.73107698048091;-6.5582275390625E-09;-0.17303466796875;1;81;2.28485465049744E-08;-4.79014217853546E-08;100 nA
-0.17578125;7.75549098041927;-9.979248046875E-10;-0.17547607421875;1;82;2.28485465049744E-08;-4.79014217853546E-08;100 nA
-0.17822265625;7.77990498035763;-6.1767578125E-09;-0.1778564453125;1;83;2.28485465049744E-08;-4.79014217853546E-08;100 nA
-0.1806640625;7.80431898029599;-1.495361328125E-09;-0.180389404296875;1;84;2.28485465049744E-08;-4.79014217853546E-08;100 nA
-0.18310546875;7.82873298023435;-4.6539306640625E-09;-0.182708740234375;1;85;2.28485465049744E-08;-4.79014217853546E-08;100 nA
-0.185546875;7.85314698017271;-6.1309814453125E-09;-0.18524169921875;1;86;2.28485465049744E-08;-4.79014217853546E-08;100 nA
-0.18798828125;7.87756098011107;-3.9825439453125E-09;-0.187652587890625;1;87;2.28485465049744E-08;-4.79014217853546E-08;100 nA
-0.1904296875;7.90197498004943;-4.1107177734375E-09;-0.19012451171875;1;88;2.28485465049744E-08;-4.79014217853546E-08;100 nA
-0.19287109375;7.92638897998779;-4.77294921875E-09;-0.192535400390625;1;89;2.28485465049744E-08;-4.79014217853546E-08;100 nA
-0.1953125;7.95080297992615;-6.57958984375E-09;-0.19500732421875;1;90;2.28485465049744E-08;-4.79014217853546E-08;100 nA
-0.19775390625;7.97521697986451;-1.806640625E-09;-0.1973876953125;1;91;2.28485465049744E-08;-4.79014217853546E-08;100 nA
-0.2001953125;7.99963097980287;-5.40771484375E-09;-0.199859619140625;1;92;2.28485465049744E-08;-4.79014217853546E-08;100 nA
-0.20263671875;8.02404497974123;-4.2572021484375E-09;-0.202301025390625;1;93;2.28485465049744E-08;-4.79014217853546E-08;100 nA
-0.205078125;8.04845897967959;-5.33447265625E-09;-0.2047119140625;1;94;2.28485465049744E-08;-4.79014217853546E-08;100 nA
-0.20751953125;8.07287297961796;-2.001953125E-09;-0.20721435546875;1;95;2.28485465049744E-08;-4.79014217853546E-08;100 nA
-0.2099609375;8.09728697955632;-7.60498046875E-09;-0.209564208984375;1;96;2.28485465049744E-08;-4.79014217853546E-08;100 nA
-0.21240234375;8.12170097949468;-1.77001953125E-09;-0.212066650390625;1;97;2.28485465049744E-08;-4.79014217853546E-08;100 nA
-0.21484375;8.14611497943304;-6.6131591796875E-09;-0.214569091796875;1;98;2.28485465049744E-08;-4.79014217853546E-08;100 nA
-0.21728515625;8.1705289793714;-3.35693359375E-09;-0.2169189453125;1;99;2.28485465049744E-08;-4.79014217853546E-08;100 nA
-0.2197265625;8.19494297930976;-4.2144775390625E-09;-0.2193603515625;1;100;2.28485465049744E-08;-4.79014217853546E-08;100 nA
-0.22216796875;8.21935697924812;-6.3262939453125E-09;-0.221771240234375;1;101;2.28485465049744E-08;-4.79014217853546E-08;100 nA
-0.224609375;8.24377097918648;-5.4840087890625E-09;-0.22430419921875;1;102;2.28485465049744E-08;-4.79014217853546E-08;100 nA
-0.22705078125;8.26818497912484;-4.144287109375E-09;-0.2266845703125;1;103;2.28485465049744E-08;-4.79014217853546E-08;100 nA
-0.2294921875;8.2925989790632;-6.0272216796875E-09;-0.229156494140625;1;104;2.28485465049744E-08;-4.79014217853546E-08;100 nA
-0.23193359375;8.31701297900156;-5.1727294921875E-09;-0.231597900390625;1;105;2.28485465049744E-08;-4.79014217853546E-08;100 nA
-0.234375;8.34142697893992;-4.7607421875E-09;-0.2340087890625;1;106;2.28485465049744E-08;-4.79014217853546E-08;100 nA
-0.23681640625;8.36584097887828;-7.354736328125E-09;-0.2364501953125;1;107;2.28485465049744E-08;-4.79014217853546E-08;100 nA
-0.2392578125;8.39025497881664;-4.486083984375E-09;-0.238922119140625;1;108;2.28485465049744E-08;-4.79014217853546E-08;100 nA
-0.24169921875;8.414668978755;-8.3282470703125E-09;-0.24139404296875;1;109;2.28485465049744E-08;-4.79014217853546E-08;100 nA
-0.244140625;8.43908297869336;-4.0557861328125E-09;-0.243743896484375;1;110;2.28485465049744E-08;-4.79014217853546E-08;100 nA
-0.24658203125;8.46349697863172;-9.5672607421875E-09;-0.246185302734375;1;111;2.28485465049744E-08;-4.79014217853546E-08;100 nA
-0.2490234375;8.48791097857008;-5.37109375E-09;-0.2486572265625;1;112;2.28485465049744E-08;-4.79014217853546E-08;100 nA
-0.25146484375;8.51232497850845;-9.5123291015625E-09;-0.2510986328125;1;113;2.28485465049744E-08;-4.79014217853546E-08;100 nA
-0.25390625;8.53673897844681;-9.7930908203125E-09;-0.25347900390625;1;114;2.28485465049744E-08;-4.79014217853546E-08;100 nA
-0.25634765625;8.56115297838517;-7.5347900390625E-09;-0.25604248046875;1;115;2.28485465049744E-08;-4.79014217853546E-08;100 nA
-0.2587890625;8.58556697832353;-9.552001953125E-09;-0.258331298828125;1;116;2.28485465049744E-08;-4.79014217853546E-08;100 nA
-0.26123046875;8.60998097826189;-1.15509033203125E-08;-0.2608642578125;1;117;2.28485465049744E-08;-4.79014217853546E-08;100 nA
-0.263671875;8.63439497820025;-1.15753173828125E-08;-0.263275146484375;1;118;2.28485465049744E-08;-4.79014217853546E-08;100 nA
-0.26611328125;8.65880897813861;-9.4757080078125E-09;-0.26568603515625;1;119;2.28485465049744E-08;-4.79014217853546E-08;100 nA
-0.2685546875;8.68322297807697;-1.53900146484375E-08;-0.268157958984375;1;120;2.28485465049744E-08;-4.79014217853546E-08;100 nA
-0.27099609375;8.70763697801533;-1.4556884765625E-08;-0.2706298828125;1;121;2.28485465049744E-08;-4.79014217853546E-08;100 nA
-0.2734375;8.73205097795369;-1.6064453125E-08;-0.273040771484375;1;122;2.28485465049744E-08;-4.79014217853546E-08;100 nA
-0.27587890625;8.75646497789205;-1.5533447265625E-08;-0.275543212890625;1;123;2.28485465049744E-08;-4.79014217853546E-08;100 nA
-0.2783203125;8.78087897783041;-2.2137451171875E-08;-0.27789306640625;1;124;2.28485465049744E-08;-4.79014217853546E-08;100 nA
-0.28076171875;8.80529297776877;-1.9073486328125E-08;-0.28033447265625;1;125;2.28485465049744E-08;-4.79014217853546E-08;100 nA
-0.283203125;8.82970697770713;-2.5177001953125E-08;-0.2828369140625;1;126;2.28485465049744E-08;-4.79014217853546E-08;100 nA
-0.28564453125;8.85412097764549;-2.4627685546875E-08;-0.28521728515625;1;127;2.28485465049744E-08;-4.79014217853546E-08;100 nA
-0.2880859375;8.87853497758385;-2.7862548828125E-08;-0.287689208984375;1;128;2.28485465049744E-08;-4.79014217853546E-08;100 nA
-0.29052734375;8.90294897752221;-3.1951904296875E-08;-0.290069580078125;1;129;2.28485465049744E-08;-4.79014217853546E-08;100 nA
-0.29296875;8.92736297746058;-3.3050537109375E-08;-0.292633056640625;1;130;2.28485465049744E-08;-4.79014217853546E-08;100 nA
-0.29541015625;8.95177697739894;-3.2958984375E-08;-0.294952392578125;1;131;2.28485465049744E-08;-4.79014217853546E-08;100 nA
-0.2978515625;8.9761909773373;-3.69873046875E-08;-0.297393798828125;1;132;2.28485465049744E-08;-4.79014217853546E-08;100 nA
-0.30029296875;9.00060497727566;-3.9276123046875E-08;-0.299896240234375;1;133;2.28485465049744E-08;-4.79014217853546E-08;100 nA
-0.302734375;9.02501897721402;-3.64990234375E-08;-0.30230712890625;1;134;2.28485465049744E-08;-4.79014217853546E-08;100 nA
-0.30517578125;9.04943297715238;-3.955078125E-08;-0.3048095703125;1;135;2.28485465049744E-08;-4.79014217853546E-08;100 nA
-0.3076171875;9.07384697709074;-4.0374755859375E-08;-0.30712890625;1;136;2.28485465049744E-08;-4.79014217853546E-08;100 nA
-0.31005859375;9.0982609770291;-4.022216796875E-08;-0.30963134765625;1;137;2.28485465049744E-08;-4.79014217853546E-08;100 nA
-0.3125;9.12267497696746;-3.7872314453125E-08;-0.312042236328125;1;138;2.28485465049744E-08;-4.79014217853546E-08;100 nA
-0.31494140625;9.14708897690582;-4.0618896484375E-08;-0.31451416015625;1;139;2.28485465049744E-08;-4.79014217853546E-08;100 nA
-0.3173828125;9.17150297684418;-3.5247802734375E-08;-0.31695556640625;1;140;2.28485465049744E-08;-4.79014217853546E-08;100 nA
-0.31982421875;9.19591697678254;-3.55224609375E-08;-0.3193359375;1;141;2.28485465049744E-08;-4.79014217853546E-08;100 nA
-0.322265625;9.2203309767209;-3.2684326171875E-08;-0.32183837890625;1;142;2.28485465049744E-08;-4.79014217853546E-08;100 nA
-0.32470703125;9.24474497665926;-2.77099609375E-08;-0.324249267578125;1;143;2.28485465049744E-08;-4.79014217853546E-08;100 nA
-0.3271484375;9.26915897659762;-2.8778076171875E-08;-0.32666015625;1;144;2.28485465049744E-08;-4.79014217853546E-08;100 nA
-0.32958984375;9.29357297653598;-2.52685546875E-08;-0.3292236328125;1;145;2.28485465049744E-08;-4.79014217853546E-08;100 nA
-0.33203125;9.31798697647434;-2.16064453125E-08;-0.331573486328125;1;146;2.28485465049744E-08;-4.79014217853546E-08;100 nA
-0.33447265625;9.3424009764127;-1.95709228515625E-08;-0.334075927734375;1;147;2.28485465049744E-08;-4.79014217853546E-08;100 nA
-0.3369140625;9.36681497635107;-2.08343505859375E-08;-0.336517333984375;1;148;2.28485465049744E-08;-4.79014217853546E-08;100 nA
-0.33935546875;9.39122897628943;-1.5869140625E-08;-0.33892822265625;1;149;2.28485465049744E-08;-4.79014217853546E-08;100 nA
-0.341796875;9.41564297622779;-1.5228271484375E-08;-0.34136962890625;1;150;2.28485465049744E-08;-4.79014217853546E-08;100 nA
-0.34423828125;9.44005697616615;-1.20849609375E-08;-0.3438720703125;1;151;2.28485465049744E-08;-4.79014217853546E-08;100 nA
-0.3466796875;9.46447097610451;-1.4923095703125E-08;-0.346160888671875;1;152;2.28485465049744E-08;-4.79014217853546E-08;100 nA
-0.34912109375;9.48888497604287;-8.6669921875E-09;-0.34869384765625;1;153;2.28485465049744E-08;-4.79014217853546E-08;100 nA
-0.3515625;9.51329897598123;-1.3525390625E-08;-0.351104736328125;1;154;2.28485465049744E-08;-4.79014217853546E-08;100 nA
-0.35400390625;9.53771297591959;-8.636474609375E-09;-0.353607177734375;1;155;2.28485465049744E-08;-4.79014217853546E-08;100 nA
-0.3564453125;9.56212697585795;-1.05010986328125E-08;-0.35601806640625;1;156;2.28485465049744E-08;-4.79014217853546E-08;100 nA
-0.35888671875;9.58654097579631;-1.0498046875E-08;-0.358489990234375;1;157;2.28485465049744E-08;-4.79014217853546E-08;100 nA
-0.361328125;9.61095497573467;-8.3984375E-09;-0.360870361328125;1;158;2.28485465049744E-08;-4.79014217853546E-08;100 nA
-0.36376953125;9.63536897567303;-9.0484619140625E-09;-0.363311767578125;1;159;2.28485465049744E-08;-4.79014217853546E-08;100 nA
-0.3662109375;9.65978297561139;-1.03546142578125E-08;-0.36578369140625;1;160;2.28485465049744E-08;-4.79014217853546E-08;100 nA
-0.36865234375;9.68419697554975;-9.4512939453125E-09;-0.3681640625;1;161;2.28485465049744E-08;-4.79014217853546E-08;100 nA
-0.37109375;9.70861097548811;-5.4656982421875E-09;-0.37066650390625;1;162;2.28485465049744E-08;-4.79014217853546E-08;100 nA
-0.37353515625;9.73302497542647;-9.8724365234375E-09;-0.373138427734375;1;163;2.28485465049744E-08;-4.79014217853546E-08;100 nA
-0.3759765625;9.75743897536483;-7.720947265625E-09;-0.37548828125;1;164;2.28485465049744E-08;-4.79014217853546E-08;100 nA
-0.37841796875;9.7818529753032;-8.843994140625E-09;-0.37799072265625;1;165;2.28485465049744E-08;-4.79014217853546E-08;100 nA
-0.380859375;9.80626697524156;-5.950927734375E-09;-0.38043212890625;1;166;2.28485465049744E-08;-4.79014217853546E-08;100 nA
-0.38330078125;9.83068097517992;-1.09527587890625E-08;-0.382781982421875;1;167;2.28485465049744E-08;-4.79014217853546E-08;100 nA
-0.3857421875;9.85509497511828;-5.401611328125E-09;-0.385284423828125;1;168;2.28485465049744E-08;-4.79014217853546E-08;100 nA
-0.38818359375;9.87950897505664;-1.0235595703125E-08;-0.3876953125;1;169;2.28485465049744E-08;-4.79014217853546E-08;100 nA
-0.390625;9.903922974995;-7.513427734375E-09;-0.390228271484375;1;170;2.28485465049744E-08;-4.79014217853546E-08;100 nA
-0.39306640625;9.92833697493336;-8.5113525390625E-09;-0.392608642578125;1;171;2.28485465049744E-08;-4.79014217853546E-08;100 nA
-0.3955078125;9.95275097487172;-1.0772705078125E-08;-0.394989013671875;1;172;2.28485465049744E-08;-4.79014217853546E-08;100 nA
-0.39794921875;9.97716497481008;-8.8897705078125E-09;-0.3975830078125;1;173;2.28485465049744E-08;-4.79014217853546E-08;100 nA
-0.400390625;10.0015789747484;-7.8399658203125E-09;-0.39990234375;1;174;2.28485465049744E-08;-4.79014217853546E-08;100 nA
-0.40283203125;10.0259929746868;-8.48388671875E-09;-0.402374267578125;1;175;2.28485465049744E-08;-4.79014217853546E-08;100 nA
-0.4052734375;10.0504069746252;-1.082763671875E-08;-0.404815673828125;1;176;2.28485465049744E-08;-4.79014217853546E-08;100 nA
-0.40771484375;10.0748209745635;-6.439208984375E-09;-0.4072265625;1;177;2.28485465049744E-08;-4.79014217853546E-08;100 nA
-0.41015625;10.0992349745019;-1.01654052734375E-08;-0.40966796875;1;178;2.28485465049744E-08;-4.79014217853546E-08;100 nA
-0.41259765625;10.1236489744402;-8.21533203125E-09;-0.412139892578125;1;179;2.28485465049744E-08;-4.79014217853546E-08;100 nA
-0.4150390625;10.1480629743786;-1.0711669921875E-08;-0.41455078125;1;180;2.28485465049744E-08;-4.79014217853546E-08;100 nA
-0.41748046875;10.172476974317;-6.40869140625E-09;-0.4169921875;1;181;2.28485465049744E-08;-4.79014217853546E-08;100 nA
-0.419921875;10.1968909742553;-1.22955322265625E-08;-0.41949462890625;1;182;2.28485465049744E-08;-4.79014217853546E-08;100 nA
-0.42236328125;10.2213049741937;-6.7138671875E-09;-0.421844482421875;1;183;2.28485465049744E-08;-4.79014217853546E-08;100 nA
-0.4248046875;10.245718974132;-1.13311767578125E-08;-0.42431640625;1;184;2.28485465049744E-08;-4.79014217853546E-08;100 nA
-0.42724609375;10.2701329740704;-9.063720703125E-09;-0.426666259765625;1;185;2.28485465049744E-08;-4.79014217853546E-08;100 nA
-0.4296875;10.2945469740088;-9.0179443359375E-09;-0.429229736328125;1;186;2.28485465049744E-08;-4.79014217853546E-08;100 nA
-0.43212890625;10.3189609739471;-1.0693359375E-08;-0.431640625;1;187;2.28485465049744E-08;-4.79014217853546E-08;100 nA
-0.4345703125;10.3433749738855;-1.104736328125E-08;-0.43408203125;1;188;2.28485465049744E-08;-4.79014217853546E-08;100 nA
-0.43701171875;10.3677889738238;-9.9822998046875E-09;-0.436492919921875;1;189;2.28485465049744E-08;-4.79014217853546E-08;100 nA
-0.439453125;10.3922029737622;-8.10546875E-09;-0.43890380859375;1;190;2.28485465049744E-08;-4.79014217853546E-08;100 nA
-0.44189453125;10.4166169737006;-1.304931640625E-08;-0.44140625;1;191;2.28485465049744E-08;-4.79014217853546E-08;100 nA
-0.4443359375;10.4410309736389;-9.09423828125E-09;-0.44378662109375;1;192;2.28485465049744E-08;-4.79014217853546E-08;100 nA
-0.44677734375;10.4654449735773;-1.0986328125E-08;-0.446319580078125;1;193;2.28485465049744E-08;-4.79014217853546E-08;100 nA
-0.44921875;10.4898589735157;-9.539794921875E-09;-0.448699951171875;1;194;2.28485465049744E-08;-4.79014217853546E-08;100 nA
-0.45166015625;10.514272973454;-1.39739990234375E-08;-0.451171875;1;195;2.28485465049744E-08;-4.79014217853546E-08;100 nA
-0.44921875;10.5386869733924;-6.866455078125E-09;-0.44873046875;1;196;2.28485465049744E-08;-4.79014217853546E-08;100 nA
-0.44677734375;10.5631009733307;-1.3092041015625E-08;-0.446258544921875;1;197;2.28485465049744E-08;-4.79014217853546E-08;100 nA
-0.4443359375;10.5875149732691;-7.2021484375E-09;-0.44384765625;1;198;2.28485465049744E-08;-4.79014217853546E-08;100 nA
-0.44189453125;10.6119289732075;-9.686279296875E-09;-0.441436767578125;1;199;2.28485465049744E-08;-4.79014217853546E-08;100 nA
-0.439453125;10.6363429731458;-1.0113525390625E-08;-0.43896484375;1;200;2.28485465049744E-08;-4.79014217853546E-08;100 nA
-0.43701171875;10.6607569730842;-7.9498291015625E-09;-0.436553955078125;1;201;2.28485465049744E-08;-4.79014217853546E-08;100 nA
-0.4345703125;10.6851709730225;-8.06884765625E-09;-0.43402099609375;1;202;2.28485465049744E-08;-4.79014217853546E-08;100 nA
-0.43212890625;10.7095849729609;-8.770751953125E-09;-0.431640625;1;203;2.28485465049744E-08;-4.79014217853546E-08;100 nA
-0.4296875;10.7339989728993;-9.1552734375E-09;-0.42926025390625;1;204;2.28485465049744E-08;-4.79014217853546E-08;100 nA
-0.42724609375;10.7584129728376;-4.1748046875E-09;-0.426666259765625;1;205;2.28485465049744E-08;-4.79014217853546E-08;100 nA
-0.4248046875;10.782826972776;-8.4228515625E-09;-0.424285888671875;1;206;2.28485465049744E-08;-4.79014217853546E-08;100 nA
-0.42236328125;10.8072409727143;-6.854248046875E-09;-0.421844482421875;1;207;2.28485465049744E-08;-4.79014217853546E-08;100 nA
-0.419921875;10.8316549726527;-7.7606201171875E-09;-0.419464111328125;1;208;2.28485465049744E-08;-4.79014217853546E-08;100 nA
-0.41748046875;10.8560689725911;-4.4281005859375E-09;-0.4169921875;1;209;2.28485465049744E-08;-4.79014217853546E-08;100 nA
-0.4150390625;10.8804829725294;-9.0728759765625E-09;-0.41455078125;1;210;2.28485465049744E-08;-4.79014217853546E-08;100 nA
-0.41259765625;10.9048969724678;-2.8076171875E-09;-0.412139892578125;1;211;2.28485465049744E-08;-4.79014217853546E-08;100 nA
-0.41015625;10.9293109724061;-8.0902099609375E-09;-0.409698486328125;1;212;2.28485465049744E-08;-4.79014217853546E-08;100 nA
-0.40771484375;10.9537249723445;-4.8736572265625E-09;-0.40728759765625;1;213;2.28485465049744E-08;-4.79014217853546E-08;100 nA
-0.4052734375;10.9781389722829;-5.0048828125E-09;-0.404754638671875;1;214;2.28485465049744E-08;-4.79014217853546E-08;100 nA
-0.40283203125;11.0025529722212;-6.99462890625E-09;-0.402313232421875;1;215;2.28485465049744E-08;-4.79014217853546E-08;100 nA
-0.400390625;11.0269669721596;-5.4901123046875E-09;-0.39996337890625;1;216;2.28485465049744E-08;-4.79014217853546E-08;100 nA
-0.39794921875;11.0513809720979;-4.4830322265625E-09;-0.39752197265625;1;217;2.28485465049744E-08;-4.79014217853546E-08;100 nA
-0.3955078125;11.0757949720363;-4.0374755859375E-09;-0.39501953125;1;218;2.28485465049744E-08;-4.79014217853546E-08;100 nA
-0.39306640625;11.1002089719747;-7.51953125E-09;-0.39263916015625;1;219;2.28485465049744E-08;-4.79014217853546E-08;100 nA
-0.390625;11.124622971913;-2.3193359375E-09;-0.39013671875;1;220;2.28485465049744E-08;-4.79014217853546E-08;100 nA
-0.38818359375;11.1490369718514;-4.9468994140625E-09;-0.38775634765625;1;221;2.28485465049744E-08;-4.79014217853546E-08;100 nA
-0.3857421875;11.1734509717897;-3.399658203125E-09;-0.38531494140625;1;222;2.28485465049744E-08;-4.79014217853546E-08;100 nA
-0.38330078125;11.1978649717281;-5.499267578125E-09;-0.3828125;1;223;2.28485465049744E-08;-4.79014217853546E-08;100 nA
-0.380859375;11.2222789716665;-1.287841796875E-09;-0.38043212890625;1;224;2.28485465049744E-08;-4.79014217853546E-08;100 nA
-0.37841796875;11.2466929716048;-6.6436767578125E-09;-0.3779296875;1;225;2.28485465049744E-08;-4.79014217853546E-08;100 nA
-0.3759765625;11.2711069715432;-1.068115234375E-09;-0.37554931640625;1;226;2.28485465049744E-08;-4.79014217853546E-08;100 nA
-0.37353515625;11.2955209714816;-4.9163818359375E-09;-0.373077392578125;1;227;2.28485465049744E-08;-4.79014217853546E-08;100 nA
-0.37109375;11.3199349714199;-3.8665771484375E-09;-0.37066650390625;1;228;2.28485465049744E-08;-4.79014217853546E-08;100 nA
-0.36865234375;11.3443489713583;-1.5533447265625E-09;-0.36822509765625;1;229;2.28485465049744E-08;-4.79014217853546E-08;100 nA
-0.3662109375;11.3687629712966;-2.8961181640625E-09;-0.36572265625;1;230;2.28485465049744E-08;-4.79014217853546E-08;100 nA
-0.36376953125;11.393176971235;-3.4942626953125E-09;-0.363372802734375;1;231;2.28485465049744E-08;-4.79014217853546E-08;100 nA
-0.361328125;11.4175909711734;-2.5909423828125E-09;-0.360870361328125;1;232;2.28485465049744E-08;-4.79014217853546E-08;100 nA
-0.35888671875;11.4420049711117;6.77490234375E-10;-0.35845947265625;1;233;2.28485465049744E-08;-4.79014217853546E-08;100 nA
-0.3564453125;11.4664189710501;-2.728271484375E-09;-0.356109619140625;1;234;2.28485465049744E-08;-4.79014217853546E-08;100 nA
-0.35400390625;11.4908329709884;-3.60107421875E-10;-0.353546142578125;1;235;2.28485465049744E-08;-4.79014217853546E-08;100 nA
-0.3515625;11.5152469709268;9.765625E-11;-0.35107421875;1;236;2.28485465049744E-08;-4.79014217853546E-08;100 nA
-0.34912109375;11.5396609708652;1.5228271484375E-09;-0.34869384765625;1;237;2.28485465049744E-08;-4.79014217853546E-08;100 nA
-0.3466796875;11.5640749708035;-1.1932373046875E-09;-0.34625244140625;1;238;2.28485465049744E-08;-4.79014217853546E-08;100 nA
-0.34423828125;11.5884889707419;5.181884765625E-09;-0.343841552734375;1;239;2.28485465049744E-08;-4.79014217853546E-08;100 nA
-0.341796875;11.6129029706802;-3.662109375E-10;-0.341400146484375;1;240;2.28485465049744E-08;-4.79014217853546E-08;100 nA
-0.33935546875;11.6373169706186;6.683349609375E-09;-0.33892822265625;1;241;2.28485465049744E-08;-4.79014217853546E-08;100 nA
-0.3369140625;11.661730970557;4.150390625E-09;-0.3365478515625;1;242;2.28485465049744E-08;-4.79014217853546E-08;100 nA
-0.33447265625;11.6861449704953;8.514404296875E-09;-0.334014892578125;1;243;2.28485465049744E-08;-4.79014217853546E-08;100 nA
-0.33203125;11.7105589704337;6.988525390625E-09;-0.331634521484375;1;244;2.28485465049744E-08;-4.79014217853546E-08;100 nA
-0.32958984375;11.734972970372;1.1077880859375E-08;-0.329193115234375;1;245;2.28485465049744E-08;-4.79014217853546E-08;100 nA
-0.3271484375;11.7593869703104;1.13739013671875E-08;-0.3267822265625;1;246;2.28485465049744E-08;-4.79014217853546E-08;100 nA
-0.32470703125;11.7838009702488;1.265869140625E-08;-0.324371337890625;1;247;2.28485465049744E-08;-4.79014217853546E-08;100 nA
-0.322265625;11.8082149701871;1.903076171875E-08;-0.32183837890625;1;248;2.28485465049744E-08;-4.79014217853546E-08;100 nA
-0.31982421875;11.8326289701255;1.8646240234375E-08;-0.319427490234375;1;249;2.28485465049744E-08;-4.79014217853546E-08;100 nA
-0.3173828125;11.8570429700638;2.10113525390625E-08;-0.317047119140625;1;250;2.28485465049744E-08;-4.79014217853546E-08;100 nA
-0.31494140625;11.8814569700022;2.3040771484375E-08;-0.314544677734375;1;251;2.28485465049744E-08;-4.79014217853546E-08;100 nA
-0.3125;11.9058709699406;2.685546875E-08;-0.31219482421875;1;252;2.28485465049744E-08;-4.79014217853546E-08;100 nA
-0.31005859375;11.9302849698789;2.4932861328125E-08;-0.3096923828125;1;253;2.28485465049744E-08;-4.79014217853546E-08;100 nA
-0.3076171875;11.9546989698173;2.9937744140625E-08;-0.30731201171875;1;254;2.28485465049744E-08;-4.79014217853546E-08;100 nA
-0.30517578125;11.9791129697556;2.777099609375E-08;-0.304779052734375;1;255;2.28485465049744E-08;-4.79014217853546E-08;100 nA
-0.302734375;12.003526969694;2.9937744140625E-08;-0.30230712890625;1;256;2.28485465049744E-08;-4.79014217853546E-08;100 nA
-0.30029296875;12.0279409696324;3.1982421875E-08;-0.300048828125;1;257;2.28485465049744E-08;-4.79014217853546E-08;100 nA
-0.2978515625;12.0523549695707;2.8472900390625E-08;-0.297454833984375;1;258;2.28485465049744E-08;-4.79014217853546E-08;100 nA
-0.29541015625;12.0767689695091;2.8717041015625E-08;-0.29510498046875;1;259;2.28485465049744E-08;-4.79014217853546E-08;100 nA
-0.29296875;12.1011829694474;3.009033203125E-08;-0.29266357421875;1;260;2.28485465049744E-08;-4.79014217853546E-08;100 nA
-0.29052734375;12.1255969693858;2.801513671875E-08;-0.2901611328125;1;261;2.28485465049744E-08;-4.79014217853546E-08;100 nA
-0.2880859375;12.1500109693242;2.374267578125E-08;-0.287750244140625;1;262;2.28485465049744E-08;-4.79014217853546E-08;100 nA
-0.28564453125;12.1744249692625;2.5604248046875E-08;-0.2852783203125;1;263;2.28485465049744E-08;-4.79014217853546E-08;100 nA
-0.283203125;12.1988389692009;2.3468017578125E-08;-0.28289794921875;1;264;2.28485465049744E-08;-4.79014217853546E-08;100 nA
-0.28076171875;12.2232529691393;2.1331787109375E-08;-0.2803955078125;1;265;2.28485465049744E-08;-4.79014217853546E-08;100 nA
-0.2783203125;12.2476669690776;1.7242431640625E-08;-0.2779541015625;1;266;2.28485465049744E-08;-4.79014217853546E-08;100 nA
-0.27587890625;12.272080969016;2.00897216796875E-08;-0.27557373046875;1;267;2.28485465049744E-08;-4.79014217853546E-08;100 nA
-0.2734375;12.2964949689543;1.3092041015625E-08;-0.27313232421875;1;268;2.28485465049744E-08;-4.79014217853546E-08;100 nA
-0.27099609375;12.3209089688927;1.5777587890625E-08;-0.2706298828125;1;269;2.28485465049744E-08;-4.79014217853546E-08;100 nA
-0.2685546875;12.3453229688311;1.1322021484375E-08;-0.2681884765625;1;270;2.28485465049744E-08;-4.79014217853546E-08;100 nA
-0.26611328125;12.3697369687694;1.04766845703125E-08;-0.265716552734375;1;271;2.28485465049744E-08;-4.79014217853546E-08;100 nA
-0.263671875;12.3941509687078;1.0772705078125E-08;-0.26336669921875;1;272;2.28485465049744E-08;-4.79014217853546E-08;100 nA
-0.26123046875;12.4185649686461;8.685302734375E-09;-0.260955810546875;1;273;2.28485465049744E-08;-4.79014217853546E-08;100 nA
-0.2587890625;12.4429789685845;7.0526123046875E-09;-0.258453369140625;1;274;2.28485465049744E-08;-4.79014217853546E-08;100 nA
-0.25634765625;12.4673929685229;6.6009521484375E-09;-0.2559814453125;1;275;2.28485465049744E-08;-4.79014217853546E-08;100 nA
-0.25390625;12.4918069684612;8.9752197265625E-09;-0.2535400390625;1;276;2.28485465049744E-08;-4.79014217853546E-08;100 nA
-0.25146484375;12.5162209683996;4.2694091796875E-09;-0.25115966796875;1;277;2.28485465049744E-08;-4.79014217853546E-08;100 nA
-0.2490234375;12.5406349683379;5.9295654296875E-09;-0.248626708984375;1;278;2.28485465049744E-08;-4.79014217853546E-08;100 nA
-0.24658203125;12.5650489682763;4.2266845703125E-09;-0.246246337890625;1;279;2.28485465049744E-08;-4.79014217853546E-08;100 nA
-0.244140625;12.5894629682147;5.5908203125E-09;-0.243804931640625;1;280;2.28485465049744E-08;-4.79014217853546E-08;100 nA
-0.24169921875;12.613876968153;9.429931640625E-10;-0.2413330078125;1;281;2.28485465049744E-08;-4.79014217853546E-08;100 nA
-0.2392578125;12.6382909680914;5.9661865234375E-09;-0.2388916015625;1;282;2.28485465049744E-08;-4.79014217853546E-08;100 nA
-0.23681640625;12.6627049680297;1.33056640625E-09;-0.236419677734375;1;283;2.28485465049744E-08;-4.79014217853546E-08;100 nA
-0.234375;12.6871189679681;4.0496826171875E-09;-0.23406982421875;1;284;2.28485465049744E-08;-4.79014217853546E-08;100 nA
-0.23193359375;12.7115329679065;2.557373046875E-09;-0.23162841796875;1;285;2.28485465049744E-08;-4.79014217853546E-08;100 nA
-0.2294921875;12.7359469678448;9.765625E-10;-0.22918701171875;1;286;2.28485465049744E-08;-4.79014217853546E-08;100 nA
-0.22705078125;12.7603609677832;1.9012451171875E-09;-0.226715087890625;1;287;2.28485465049744E-08;-4.79014217853546E-08;100 nA
-0.224609375;12.7847749677215;2.618408203125E-09;-0.224273681640625;1;288;2.28485465049744E-08;-4.79014217853546E-08;100 nA
-0.22216796875;12.8091889676599;2.0904541015625E-09;-0.22186279296875;1;289;2.28485465049744E-08;-4.79014217853546E-08;100 nA
-0.2197265625;12.8336029675983;-7.99560546875E-10;-0.219390869140625;1;290;2.28485465049744E-08;-4.79014217853546E-08;100 nA
-0.21728515625;12.8580169675366;4.217529296875E-09;-0.21697998046875;1;291;2.28485465049744E-08;-4.79014217853546E-08;100 nA
-0.21484375;12.882430967475;1.092529296875E-09;-0.214569091796875;1;292;2.28485465049744E-08;-4.79014217853546E-08;100 nA
-0.21240234375;12.9068449674133;2.6458740234375E-09;-0.21209716796875;1;293;2.28485465049744E-08;-4.79014217853546E-08;100 nA
-0.2099609375;12.9312589673517;7.110595703125E-10;-0.2095947265625;1;294;2.28485465049744E-08;-4.79014217853546E-08;100 nA
-0.20751953125;12.9556729672901;4.6661376953125E-09;-0.207244873046875;1;295;2.28485465049744E-08;-4.79014217853546E-08;100 nA
-0.205078125;12.9800869672284;-6.16455078125E-10;-0.204742431640625;1;296;2.28485465049744E-08;-4.79014217853546E-08;100 nA
-0.20263671875;13.0045009671668;4.2144775390625E-09;-0.20233154296875;1;297;2.28485465049744E-08;-4.79014217853546E-08;100 nA
-0.2001953125;13.0289149671052;-1.556396484375E-10;-0.19989013671875;1;298;2.28485465049744E-08;-4.79014217853546E-08;100 nA
-0.19775390625;13.0533289670435;1.8310546875E-09;-0.19744873046875;1;299;2.28485465049744E-08;-4.79014217853546E-08;100 nA
-0.1953125;13.0777429669819;3.0792236328125E-09;-0.19500732421875;1;300;2.28485465049744E-08;-4.79014217853546E-08;100 nA
-0.19287109375;13.1021569669202;1.2420654296875E-09;-0.192535400390625;1;301;2.28485465049744E-08;-4.79014217853546E-08;100 nA
-0.1904296875;13.1265709668586;4.2724609375E-10;-0.190155029296875;1;302;2.28485465049744E-08;-4.79014217853546E-08;100 nA
-0.18798828125;13.150984966797;2.294921875E-09;-0.187652587890625;1;303;2.28485465049744E-08;-4.79014217853546E-08;100 nA
-0.185546875;13.1753989667353;3.839111328125E-09;-0.18524169921875;1;304;2.28485465049744E-08;-4.79014217853546E-08;100 nA
-0.18310546875;13.1998129666737;-1.422119140625E-09;-0.182830810546875;1;305;2.28485465049744E-08;-4.79014217853546E-08;100 nA
-0.1806640625;13.224226966612;3.1280517578125E-09;-0.18035888671875;1;306;2.28485465049744E-08;-4.79014217853546E-08;100 nA
-0.17822265625;13.2486409665504;2.0263671875E-09;-0.177886962890625;1;307;2.28485465049744E-08;-4.79014217853546E-08;100 nA
-0.17578125;13.2730549664888;3.2745361328125E-09;-0.175506591796875;1;308;2.28485465049744E-08;-4.79014217853546E-08;100 nA
-0.17333984375;13.2974689664271;-4.2724609375E-10;-0.173065185546875;1;309;2.28485465049744E-08;-4.79014217853546E-08;100 nA
-0.1708984375;13.3218829663655;4.718017578125E-09;-0.170562744140625;1;310;2.28485465049744E-08;-4.79014217853546E-08;100 nA
-0.16845703125;13.3462969663038;-5.157470703125E-10;-0.16815185546875;1;311;2.28485465049744E-08;-4.79014217853546E-08;100 nA
-0.166015625;13.3707109662422;3.2623291015625E-09;-0.1656494140625;1;312;2.28485465049744E-08;-4.79014217853546E-08;100 nA
-0.16357421875;13.3951249661806;7.50732421875E-10;-0.163299560546875;1;313;2.28485465049744E-08;-4.79014217853546E-08;100 nA
-0.1611328125;13.4195389661189;5.31005859375E-10;-0.160858154296875;1;314;2.28485465049744E-08;-4.79014217853546E-08;100 nA
-0.15869140625;13.4439529660573;2.94189453125E-09;-0.158447265625;1;315;2.28485465049744E-08;-4.79014217853546E-08;100 nA
-0.15625;13.4683669659956;1.50146484375E-09;-0.156005859375;1;316;2.28485465049744E-08;-4.79014217853546E-08;100 nA
-0.15380859375;13.492780965934;1.30615234375E-09;-0.15350341796875;1;317;2.28485465049744E-08;-4.79014217853546E-08;100 nA
-0.1513671875;13.5171949658724;1.617431640625E-10;-0.151031494140625;1;318;2.28485465049744E-08;-4.79014217853546E-08;100 nA
-0.14892578125;13.5416089658107;5.303955078125E-09;-0.148651123046875;1;319;2.28485465049744E-08;-4.79014217853546E-08;100 nA
-0.146484375;13.5660229657491;1.1444091796875E-09;-0.146240234375;1;320;2.28485465049744E-08;-4.79014217853546E-08;100 nA
-0.14404296875;13.5904369656874;2.5115966796875E-09;-0.143798828125;1;321;2.28485465049744E-08;-4.79014217853546E-08;100 nA
-0.1416015625;13.6148509656258;1.947021484375E-09;-0.14129638671875;1;322;2.28485465049744E-08;-4.79014217853546E-08;100 nA
-0.13916015625;13.6392649655642;4.1900634765625E-09;-0.138916015625;1;323;2.28485465049744E-08;-4.79014217853546E-08;100 nA
-0.13671875;13.6636789655025;-5.06591796875E-10;-0.136444091796875;1;324;2.28485465049744E-08;-4.79014217853546E-08;100 nA
-0.13427734375;13.6880929654409;4.876708984375E-09;-0.13397216796875;1;325;2.28485465049744E-08;-4.79014217853546E-08;100 nA
-0.1318359375;13.7125069653792;-9.1552734375E-12;-0.131561279296875;1;326;2.28485465049744E-08;-4.79014217853546E-08;100 nA
-0.12939453125;13.7369209653176;3.2562255859375E-09;-0.129150390625;1;327;2.28485465049744E-08;-4.79014217853546E-08;100 nA
-0.126953125;13.761334965256;2.67333984375E-09;-0.126739501953125;1;328;2.28485465049744E-08;-4.79014217853546E-08;100 nA
-0.12451171875;13.7857489651943;2.74658203125E-10;-0.124267578125;1;329;2.28485465049744E-08;-4.79014217853546E-08;100 nA
-0.1220703125;13.8101629651327;2.1240234375E-09;-0.12188720703125;1;330;2.28485465049744E-08;-4.79014217853546E-08;100 nA
-0.11962890625;13.8345769650711;2.6153564453125E-09;-0.11932373046875;1;331;2.28485465049744E-08;-4.79014217853546E-08;100 nA
-0.1171875;13.8589909650094;2.8228759765625E-09;-0.116973876953125;1;332;2.28485465049744E-08;-4.79014217853546E-08;100 nA
-0.11474609375;13.8834049649478;-3.387451171875E-10;-0.114532470703125;1;333;2.28485465049744E-08;-4.79014217853546E-08;100 nA
-0.1123046875;13.9078189648861;4.559326171875E-09;-0.11199951171875;1;334;2.28485465049744E-08;-4.79014217853546E-08;100 nA
-0.10986328125;13.9322329648245;1.40380859375E-09;-0.109619140625;1;335;2.28485465049744E-08;-4.79014217853546E-08;100 nA
-0.107421875;13.9566469647629;3.2440185546875E-09;-0.107208251953125;1;336;2.28485465049744E-08;-4.79014217853546E-08;100 nA
-0.10498046875;13.9810609647012;3.387451171875E-10;-0.104705810546875;1;337;2.28485465049744E-08;-4.79014217853546E-08;100 nA
-0.1025390625;14.0054749646396;5.035400390625E-09;-0.102264404296875;1;338;2.28485465049744E-08;-4.79014217853546E-08;100 nA
-0.10009765625;14.0298889645779;6.7138671875E-11;-0.099853515625;1;339;2.28485465049744E-08;-4.79014217853546E-08;100 nA
-0.09765625;14.0543029645163;4.461669921875E-09;-0.097442626953125;1;340;2.28485465049744E-08;-4.79014217853546E-08;100 nA
-0.09521484375;14.0787169644547;1.422119140625E-09;-0.094970703125;1;341;2.28485465049744E-08;-4.79014217853546E-08;100 nA
-0.0927734375;14.103130964393;1.318359375E-09;-0.092529296875;1;342;2.28485465049744E-08;-4.79014217853546E-08;100 nA
-0.09033203125;14.1275449643314;3.5003662109375E-09;-0.09014892578125;1;343;2.28485465049744E-08;-4.79014217853546E-08;100 nA
-0.087890625;14.1519589642697;2.05078125E-09;-0.087615966796875;1;344;2.28485465049744E-08;-4.79014217853546E-08;100 nA
-0.08544921875;14.1763729642081;1.7852783203125E-09;-0.085235595703125;1;345;2.28485465049744E-08;-4.79014217853546E-08;100 nA
-0.0830078125;14.2007869641465;1.81884765625E-09;-0.082733154296875;1;346;2.28485465049744E-08;-4.79014217853546E-08;100 nA
-0.08056640625;14.2252009640848;4.7637939453125E-09;-0.080322265625;1;347;2.28485465049744E-08;-4.79014217853546E-08;100 nA
-0.078125;14.2496149640232;1.025390625E-09;-0.07794189453125;1;348;2.28485465049744E-08;-4.79014217853546E-08;100 nA
-0.07568359375;14.2740289639615;3.631591796875E-09;-0.075439453125;1;349;2.28485465049744E-08;-4.79014217853546E-08;100 nA
-0.0732421875;14.2984429638999;2.50244140625E-09;-0.073028564453125;1;350;2.28485465049744E-08;-4.79014217853546E-08;100 nA
-0.07080078125;14.3228569638383;3.9520263671875E-09;-0.070648193359375;1;351;2.28485465049744E-08;-4.79014217853546E-08;100 nA
-0.068359375;14.3472709637766;1.0986328125E-10;-0.068115234375;1;352;2.28485465049744E-08;-4.79014217853546E-08;100 nA
-0.06591796875;14.371684963715;5.48095703125E-09;-0.065765380859375;1;353;2.28485465049744E-08;-4.79014217853546E-08;100 nA
-0.0634765625;14.3960989636533;7.75146484375E-10;-0.063262939453125;1;354;2.28485465049744E-08;-4.79014217853546E-08;100 nA
-0.06103515625;14.4205129635917;3.9337158203125E-09;-0.060821533203125;1;355;2.28485465049744E-08;-4.79014217853546E-08;100 nA
-0.05859375;14.4449269635301;2.9296875E-09;-0.058380126953125;1;356;2.28485465049744E-08;-4.79014217853546E-08;100 nA
-0.05615234375;14.4693409634684;1.07421875E-09;-0.055938720703125;1;357;2.28485465049744E-08;-4.79014217853546E-08;100 nA
-0.0537109375;14.4937549634068;3.01513671875E-09;-0.053497314453125;1;358;2.28485465049744E-08;-4.79014217853546E-08;100 nA
-0.05126953125;14.5181689633451;3.2867431640625E-09;-0.05108642578125;1;359;2.28485465049744E-08;-4.79014217853546E-08;100 nA
-0.048828125;14.5425829632835;2.532958984375E-09;-0.0486083984375;1;360;2.28485465049744E-08;-4.79014217853546E-08;100 nA
-0.04638671875;14.5669969632219;9.918212890625E-10;-0.0461578369140625;1;361;2.28485465049744E-08;-4.79014217853546E-08;100 nA
-0.0439453125;14.5914109631602;6.134033203125E-09;-0.0437255859375;1;362;2.28485465049744E-08;-4.79014217853546E-08;100 nA
-0.04150390625;14.6158249630986;2.0294189453125E-09;-0.04127197265625;1;363;2.28485465049744E-08;-4.79014217853546E-08;100 nA
-0.0390625;14.6402389630369;3.179931640625E-09;-0.0388397216796875;1;364;2.28485465049744E-08;-4.79014217853546E-08;100 nA
-0.03662109375;14.6646529629753;2.16064453125E-09;-0.03638916015625;1;365;2.28485465049744E-08;-4.79014217853546E-08;100 nA
-0.0341796875;14.6890669629137;5.718994140625E-09;-0.033935546875;1;366;2.28485465049744E-08;-4.79014217853546E-08;100 nA
-0.03173828125;14.713480962852;1.220703125E-11;-0.031512451171875;1;367;2.28485465049744E-08;-4.79014217853546E-08;100 nA
-0.029296875;14.7378949627904;5.2459716796875E-09;-0.0290771484375;1;368;2.28485465049744E-08;-4.79014217853546E-08;100 nA
-0.02685546875;14.7623089627288;1.1383056640625E-09;-0.026641845703125;1;369;2.28485465049744E-08;-4.79014217853546E-08;100 nA
-0.0244140625;14.7867229626671;3.1463623046875E-09;-0.0241973876953125;1;370;2.28485465049744E-08;-4.79014217853546E-08;100 nA
-0.02197265625;14.8111369626055;3.6712646484375E-09;-0.021759033203125;1;371;2.28485465049744E-08;-4.79014217853546E-08;100 nA
-0.01953125;14.8355509625438;1.5899658203125E-09;-0.0193450927734375;1;372;2.28485465049744E-08;-4.79014217853546E-08;100 nA
-0.01708984375;14.8599649624822;2.6123046875E-09;-0.016900634765625;1;373;2.28485465049744E-08;-4.79014217853546E-08;100 nA
-0.0146484375;14.8843789624206;3.7322998046875E-09;-0.01444091796875;1;374;2.28485465049744E-08;-4.79014217853546E-08;100 nA
-0.01220703125;14.9087929623589;4.8980712890625E-09;-0.0120086669921875;1;375;2.28485465049744E-08;-4.79014217853546E-08;100 nA
-0.009765625;14.9332069622973;5.43212890625E-10;-0.00957641601562501;1;376;2.28485465049744E-08;-4.79014217853546E-08;100 nA
-0.00732421875;14.9576209622356;5.65185546875E-09;-0.00713500976562501;1;377;2.28485465049744E-08;-4.79014217853546E-08;100 nA
-0.0048828125;14.982034962174;3.9337158203125E-09;-0.00470886230468751;1;378;2.28485465049744E-08;-4.79014217853546E-08;100 nA
-0.00244140625;15.0064489621124;3.80859375E-09;-0.00224914550781249;1;379;2.28485465049744E-08;-4.79014217853546E-08;100 nA
0;15.0308629620507;2.05078125E-09;0.000189208984374994;1;380;2.28485465049744E-08;-4.79014217853546E-08;100 nA
